-5.620384216308593750e-02,-1.210548207163810730e-01,1.719287782907485962e-02,-2.509230375289916992e-02,-8.892387151718139648e-02,-3.273613005876541138e-02,5.582658573985099792e-02,-6.542254239320755005e-02,-2.760791406035423279e-02,1.424241438508033752e-02,5.380361527204513550e-02,-3.293937817215919495e-02,-9.165538847446441650e-02,-6.048078462481498718e-02,-5.054378509521484375e-02,-4.715641494840383530e-03,-8.549003303050994873e-02,7.390040904283523560e-02,7.344326004385948181e-03,-9.003620594739913940e-02,3.919151797890663147e-02,-1.571515761315822601e-02,2.222520112991333008e-02,-2.424190565943717957e-02,-2.450919896364212036e-02,-1.196266487240791321e-01,-1.038866192102432251e-01,-1.919510774314403534e-02,6.791472434997558594e-02,-8.104941993951797485e-02,2.025368303293362260e-04,-8.965711295604705811e-02,-9.759378433227539062e-02,-5.247795209288597107e-02,-8.406530320644378662e-02,-9.984928369522094727e-02,-5.137676000595092773e-02,-3.423951938748359680e-02,3.157985955476760864e-02,2.628833800554275513e-02,-2.213964797556400299e-02,-4.339145869016647339e-02,-3.665372356772422791e-02,-9.967160224914550781e-02,5.524620041251182556e-02,8.443405479192733765e-02,-1.012808158993721008e-01,-1.049042642116546631e-01,-1.084672361612319946e-01,-2.651696652173995972e-02,-1.013430580496788025e-02,-8.759751915931701660e-02,3.710204362869262695e-02,-1.132462080568075180e-02,-6.703668087720870972e-02,-1.150004491209983826e-01,6.317555159330368042e-02,8.345116674900054932e-02,-5.618655588477849960e-03,-5.995137244462966919e-02,4.822890460491180420e-02,4.338071122765541077e-02,-3.105642087757587433e-02,7.672092318534851074e-02,-9.413314610719680786e-02,-2.980307117104530334e-02,8.648082613945007324e-02,-6.313810497522354126e-02,-3.147590532898902893e-02,-6.819918006658554077e-02,-6.107653304934501648e-02,7.135450839996337891e-02,5.158555880188941956e-02,-1.049113124608993530e-01,-7.510739564895629883e-02,-1.513900421559810638e-02,-4.691122099757194519e-02,-6.923800706863403320e-02,-1.195294111967086792e-01,5.653491243720054626e-02,3.862324357032775879e-02,1.280061341822147369e-02,-3.858179599046707153e-02,-1.136707887053489685e-01,-2.352314069867134094e-02,2.212414704263210297e-02,-4.584616795182228088e-02,6.094402819871902466e-02,4.566925112158060074e-03,-2.336813695728778839e-02,2.043515257537364960e-02,3.367979079484939575e-02,-9.347519278526306152e-02,1.473339274525642395e-02,-1.094677671790122986e-01,-3.731954470276832581e-02
4.690864123404026031e-03,1.557565033435821533e-01,-4.688562825322151184e-03,2.863910496234893799e-01,1.439879685640335083e-01,1.268348246812820435e-01,6.149366125464439392e-02,-2.211070433259010315e-02,5.489777773618698120e-02,2.522133588790893555e-01,2.293803840875625610e-01,4.194826469756662846e-04,-1.229946911334991455e-01,3.914905339479446411e-02,-1.694904826581478119e-02,-2.111805230379104614e-01,5.884227156639099121e-02,9.121242165565490723e-02,-6.565333902835845947e-02,2.175702154636383057e-02,1.313374638557434082e-01,-3.196408152580261230e-01,-8.549533784389495850e-02,6.567315757274627686e-02,-2.165096998214721680e-01,6.901703029870986938e-02,1.337177306413650513e-01,-3.132816776633262634e-02,-5.393020808696746826e-02,8.202883601188659668e-02,1.487946063280105591e-01,6.723722815513610840e-02,7.541699707508087158e-02,5.045288242399692535e-03,8.520182222127914429e-02,6.543780863285064697e-02,-3.288756012916564941e-01,2.335574664175510406e-02,1.353133562952280045e-02,-1.925159394741058350e-01,-1.889718323945999146e-01,-2.251942157745361328e-01,-8.598408661782741547e-03,9.696973115205764771e-02,1.542488634586334229e-01,9.945933520793914795e-02,2.233019918203353882e-01,1.919758915901184082e-01,-7.897754758596420288e-02,8.309064060449600220e-02,8.557318150997161865e-02,-1.493122577667236328e-01,-2.535773441195487976e-02,1.183499619364738464e-01,-1.479251086711883545e-01,2.325588278472423553e-02,3.942300006747245789e-02,1.517812609672546387e-01,7.455053180456161499e-02,1.800556480884552002e-01,-1.249758005142211914e-01,-1.600784361362457275e-01,2.232850715517997742e-02,-2.813927829265594482e-01,-2.798372507095336914e-01,-2.368037104606628418e-01,-1.388872787356376648e-02,-6.649816036224365234e-02,-9.007528424263000488e-02,-1.555419564247131348e-01,5.496906233020126820e-04,1.026809811592102051e-01,1.264860630035400391e-01,1.066094711422920227e-01,2.075417488813400269e-01,-8.733411878347396851e-02,-9.148162603378295898e-02,-2.531210780143737793e-01,-2.313650399446487427e-01,-1.508484035730361938e-02,-7.996226847171783447e-02,-2.020525187253952026e-01,4.113039374351501465e-02,3.456696122884750366e-02,-9.911196678876876831e-02,-1.109141949564218521e-02,-5.878416076302528381e-02,-1.946434937417507172e-02,-3.345068544149398804e-02,-9.463033638894557953e-03,-1.967427581548690796e-01,-1.598990708589553833e-01,-8.753050863742828369e-02,-1.212866604328155518e-01,-1.267077028751373291e-01,8.514092862606048584e-02
1.626983284950256348e-01,-8.296303451061248779e-02,-7.364887744188308716e-02,3.226164877414703369e-01,4.966715872287750244e-01,3.080931603908538818e-01,1.305499970912933350e-01,-7.903057336807250977e-02,-2.311489544808864594e-02,1.531787216663360596e-01,5.433449894189834595e-02,-2.978545986115932465e-02,-5.049694702029228210e-02,-2.609357982873916626e-02,-1.180125474929809570e-01,7.017140835523605347e-02,1.398472338914871216e-01,-7.254592142999172211e-03,9.704691171646118164e-02,1.703258007764816284e-01,-6.609429419040679932e-02,1.199962571263313293e-01,2.841201424598693848e-02,-2.843028008937835693e-01,7.831329852342605591e-02,1.206979528069496155e-01,-1.646680533885955811e-01,9.508245438337326050e-02,9.326464682817459106e-02,-5.778286606073379517e-02,-1.988868601620197296e-02,1.432097703218460083e-02,-1.756016463041305542e-01,2.283286601305007935e-01,1.914914846420288086e-01,1.260670553892850876e-02,-1.217075996100902557e-02,-7.166276127099990845e-02,-8.389691263437271118e-02,-2.385036647319793701e-01,-2.135644853115081787e-01,-4.638066887855529785e-01,1.250796020030975342e-01,1.177291199564933777e-01,2.011378481984138489e-02,-2.434943020343780518e-01,-4.135460555553436279e-01,-2.965869903564453125e-01,3.578005731105804443e-02,-2.985442616045475006e-02,-8.826708048582077026e-02,1.496655344963073730e-01,-2.403310127556324005e-02,-3.946237638592720032e-02,-9.754321537911891937e-03,-5.342576280236244202e-02,-2.266292870044708252e-01,2.002326399087905884e-02,3.739113360643386841e-02,-2.085577696561813354e-01,-2.639167904853820801e-01,-3.201189041137695312e-01,-3.347095549106597900e-01,-3.380543366074562073e-02,-1.935127824544906616e-01,-2.283454537391662598e-01,-8.188709616661071777e-02,5.285654589533805847e-02,1.806751824915409088e-02,1.342519968748092651e-01,-9.723776951432228088e-03,-5.612657964229583740e-02,1.909478455781936646e-01,3.530915081501007080e-01,1.033750250935554504e-01,-6.697915196418762207e-01,-8.237650990486145020e-01,-6.715030670166015625e-01,-2.843848802149295807e-02,-1.749160885810852051e-01,-2.570833861827850342e-01,1.054174005985260010e-01,7.479455322027206421e-02,-1.750080883502960205e-01,-1.593989878892898560e-02,-1.496067494153976440e-01,-2.643460035324096680e-01,2.193797379732131958e-02,-7.714378088712692261e-02,-1.131259277462959290e-01,4.827692359685897827e-02,-4.767019674181938171e-02,-3.667676076292991638e-02,-1.813712716102600098e-01,-3.842025995254516602e-01,-4.481292366981506348e-01
1.863352656364440918e-01,1.534623801708221436e-01,1.202468648552894592e-01,-5.873525738716125488e-01,-5.297779440879821777e-01,-1.892115920782089233e-01,-6.782510876655578613e-02,1.411942578852176666e-02,2.248431369662284851e-02,-1.748503297567367554e-01,-1.576889306306838989e-01,-2.380034476518630981e-01,6.185628101229667664e-02,-6.876294314861297607e-02,-3.765894845128059387e-02,-3.159732520580291748e-01,-3.162482678890228271e-01,-1.639271676540374756e-01,-1.513197319582104683e-03,-9.921313822269439697e-02,-1.824386268854141235e-01,9.220848232507705688e-02,-1.887921430170536041e-02,1.570599339902400970e-02,-1.396582275629043579e-01,-3.779963031411170959e-02,-1.774841248989105225e-01,-3.690423816442489624e-02,-1.378472596406936646e-01,-1.531029492616653442e-01,-6.017588078975677490e-02,4.257497563958168030e-02,-3.325987234711647034e-02,-4.596438109874725342e-01,-2.321169376373291016e-01,-3.233458399772644043e-01,5.985268577933311462e-02,1.661482453346252441e-01,1.531832665205001831e-01,2.015914171934127808e-01,2.093573510646820068e-01,2.250012010335922241e-01,-2.591066062450408936e-01,-2.001691758632659912e-01,-2.451159656047821045e-01,-1.613244563341140747e-01,-1.546325981616973877e-01,-3.015839457511901855e-01,5.478506535291671753e-02,-5.961120501160621643e-02,9.310762397944927216e-03,-3.751017153263092041e-03,-6.008899956941604614e-02,-2.727629430592060089e-02,1.669442206621170044e-01,3.312757015228271484e-01,1.804029196500778198e-01,-5.568753182888031006e-02,-1.496407985687255859e-01,-1.909500658512115479e-01,1.811707764863967896e-01,1.788661070168018341e-02,-1.655395142734050751e-02,-2.352431230247020721e-02,-3.571269661188125610e-02,-3.037471324205398560e-03,-2.406059019267559052e-02,-2.874438650906085968e-02,5.582889541983604431e-02,4.590307921171188354e-02,5.996983870863914490e-02,-4.269053041934967041e-02,-1.038125678896903992e-01,-1.863051503896713257e-01,-2.248331308364868164e-01,1.808875501155853271e-01,2.417676150798797607e-01,2.671652436256408691e-01,1.212826594710350037e-01,1.139455363154411316e-01,1.386659294366836548e-01,-6.808224320411682129e-02,8.438017219305038452e-02,-3.626044094562530518e-02,-6.362729473039507866e-04,1.367131620645523071e-01,-6.833042949438095093e-03,1.408865861594676971e-02,7.350268959999084473e-02,4.128915816545486450e-02,1.108328253030776978e-01,-4.258942976593971252e-02,6.761137396097183228e-02,1.426281630992889404e-01,9.541597962379455566e-02,-2.656506747007369995e-02
-2.549767121672630310e-02,-1.155504025518894196e-02,5.427303165197372437e-02,-1.057168617844581604e-01,-1.181860566139221191e-01,-8.204291015863418579e-02,-1.104279514402151108e-02,-1.007653772830963135e-01,-4.686810076236724854e-02,-7.775168120861053467e-02,-1.037637703120708466e-02,-8.965811133384704590e-02,3.590686619281768799e-02,-1.231104359030723572e-01,-7.868206501007080078e-02,-2.619096636772155762e-02,-1.491192430257797241e-01,-4.788199439644813538e-03,-5.630730837583541870e-02,-6.549169868230819702e-02,5.816050246357917786e-02,-6.217753514647483826e-02,-2.407994819805026054e-03,-5.394051223993301392e-02,2.262502163648605347e-02,6.947761029005050659e-02,7.938478887081146240e-02,-8.500923961400985718e-02,-1.224893853068351746e-01,-8.880303055047988892e-02,4.228956997394561768e-03,1.677602343261241913e-02,1.656394079327583313e-02,6.168798077851533890e-03,6.593463569879531860e-02,-1.000221371650695801e-01,-1.083682775497436523e-01,-4.866716638207435608e-02,6.508493423461914062e-02,-9.486342966556549072e-02,5.634978041052818298e-02,-4.038453102111816406e-02,2.675211802124977112e-02,6.751865148544311523e-02,6.653088331222534180e-02,8.444019407033920288e-02,-3.726426512002944946e-02,-7.936500012874603271e-02,4.332256689667701721e-02,8.702326565980911255e-02,2.540734363719820976e-03,-6.183933839201927185e-02,-3.428301587700843811e-02,-6.124614551663398743e-02,1.964116381714120507e-04,-1.511843055486679077e-01,3.460586071014404297e-02,-2.599105797708034515e-02,-8.445152640342712402e-02,-6.766412407159805298e-02,-7.597356289625167847e-02,-1.053818389773368835e-01,-1.894997246563434601e-02,-3.745212778449058533e-02,-7.872496545314788818e-02,-4.917162284255027771e-02,-1.406866218894720078e-02,4.495856910943984985e-02,-8.254633098840713501e-02,-1.671390607953071594e-02,-1.642385125160217285e-02,-1.017446666955947876e-01,4.076494276523590088e-02,-8.822759985923767090e-02,4.475112259387969971e-02,4.970425367355346680e-02,-2.945984341204166412e-02,3.530564531683921814e-02,-1.165089234709739685e-01,-6.600810587406158447e-02,-1.434139907360076904e-01,-7.782971858978271484e-02,1.276309415698051453e-02,5.687780678272247314e-02,-7.342576980590820312e-02,-5.744080245494842529e-02,-7.616867125034332275e-02,-2.838438376784324646e-02,-1.031633615493774414e-01,-1.009336784482002258e-01,-4.055706039071083069e-02,7.974656671285629272e-02,2.438726514810696244e-04,-5.636331439018249512e-02,5.320409312844276428e-02,4.804025962948799133e-02
1.117324456572532654e-01,-9.339656680822372437e-03,-7.564394176006317139e-02,8.542939275503158569e-02,9.131314605474472046e-02,9.019145369529724121e-02,1.156623438000679016e-01,1.860636845231056213e-02,1.353820413351058960e-01,9.387706220149993896e-02,1.902348101139068604e-01,1.854905933141708374e-01,1.046481207013130188e-01,8.544852584600448608e-02,9.412311017513275146e-02,1.258268356323242188e-01,1.502414792776107788e-01,1.808038949966430664e-01,-1.051700953394174576e-02,1.169456765055656433e-01,4.907700791954994202e-02,-5.604546144604682922e-02,-6.610659509897232056e-02,-1.239446699619293213e-01,5.361612513661384583e-02,1.359993368387222290e-01,1.049631685018539429e-01,1.280208379030227661e-01,1.169285625219345093e-01,8.943511545658111572e-02,4.981470108032226562e-02,-1.649422012269496918e-02,1.374866813421249390e-01,1.832585334777832031e-01,1.897889226675033569e-01,2.810749113559722900e-01,2.222193777561187744e-02,-7.868117094039916992e-02,3.440071269869804382e-02,-5.024173110723495483e-02,5.401393026113510132e-02,5.714253336191177368e-02,5.387531965970993042e-02,2.778540365397930145e-02,1.980824209749698639e-02,2.767994999885559082e-02,2.188147604465484619e-02,-4.387254640460014343e-02,1.122014224529266357e-01,-7.788696791976690292e-03,-5.392815917730331421e-03,5.526161566376686096e-02,1.164297014474868774e-01,-1.619747839868068695e-02,-1.797916181385517120e-02,-1.011723205447196960e-01,-1.599003374576568604e-01,9.190447628498077393e-02,1.005534157156944275e-01,1.603573858737945557e-01,-4.496937990188598633e-02,1.089212521910667419e-01,1.263637542724609375e-01,4.360054433345794678e-02,4.539593681693077087e-02,8.415766060352325439e-02,-9.436144679784774780e-02,7.413999736309051514e-02,-1.785093918442726135e-02,3.676745295524597168e-02,8.221120387315750122e-02,7.023749500513076782e-02,-4.243944957852363586e-02,-8.381497859954833984e-02,-1.320933699607849121e-01,3.136681020259857178e-02,2.481558732688426971e-02,-1.338515132665634155e-01,2.514784224331378937e-02,-3.019819036126136780e-02,7.440053671598434448e-02,1.013259515166282654e-01,1.218381077051162720e-01,-3.528942540287971497e-02,-7.070847600698471069e-02,4.339324682950973511e-02,-1.531540788710117340e-02,9.837814420461654663e-02,-7.432722300291061401e-02,1.080920994281768799e-01,-4.160827025771141052e-02,-5.386952310800552368e-02,1.008962746709585190e-02,-3.853468596935272217e-02,-2.518886327743530273e-02,1.114168614149093628e-01
1.780540794134140015e-01,1.594092994928359985e-01,1.363100856542587280e-01,-6.003386527299880981e-02,-6.568952649831771851e-02,9.406441450119018555e-02,-2.977749332785606384e-02,-4.637546464800834656e-02,1.329450309276580811e-01,9.224166162312030792e-03,1.258554756641387939e-01,3.011769428849220276e-02,9.288788586854934692e-02,-4.699288681149482727e-02,9.113578498363494873e-02,2.052953243255615234e-01,1.607162803411483765e-01,2.487571537494659424e-01,-8.690895512700080872e-03,-7.701449841260910034e-02,7.120238244533538818e-02,-1.738970875740051270e-01,-4.104666039347648621e-02,-1.143063232302665710e-01,-8.769784122705459595e-02,-3.265029564499855042e-02,-2.666123956441879272e-02,-8.908707648515701294e-02,-2.151690982282161713e-02,-5.747750401496887207e-02,-3.646970540285110474e-02,-3.470791131258010864e-02,1.085697021335363388e-02,1.627252399921417236e-01,2.991633117198944092e-01,1.467778533697128296e-01,-1.762192994356155396e-01,-1.453689485788345337e-01,4.875693842768669128e-02,5.020404607057571411e-02,3.307430818676948547e-02,1.233789771795272827e-01,-5.609595775604248047e-02,6.892381608486175537e-02,2.058222144842147827e-01,5.332233384251594543e-02,-5.005446821451187134e-02,3.023668937385082245e-02,2.484649606049060822e-02,5.096068233251571655e-02,-3.328317031264305115e-02,5.438621714711189270e-02,4.689150955528020859e-03,-7.875484973192214966e-02,-2.851144410669803619e-02,-1.267486363649368286e-01,-4.545150324702262878e-03,-2.774414047598838806e-02,7.239110767841339111e-02,8.965224027633666992e-02,-3.617227450013160706e-02,4.452042281627655029e-02,8.409634977579116821e-02,3.989616408944129944e-02,1.147272512316703796e-01,1.582322716712951660e-01,1.250270474702119827e-02,-9.969388693571090698e-02,-3.224539104849100113e-04,-4.920812323689460754e-02,4.741674661636352539e-02,-5.647771805524826050e-02,-1.101991087198257446e-01,-3.557025641202926636e-02,3.931593894958496094e-02,5.229520425200462341e-02,4.968637600541114807e-02,5.371011793613433838e-02,-5.145554244518280029e-02,1.846964098513126373e-02,2.978916466236114502e-02,1.956204324960708618e-02,6.929522007703781128e-02,6.328708678483963013e-02,6.279941648244857788e-02,-2.966992557048797607e-03,-2.514261566102504730e-02,8.769048750400543213e-02,9.617570042610168457e-02,7.772761583328247070e-02,6.249933317303657532e-02,6.263406574726104736e-02,1.116989776492118835e-01,9.526451677083969116e-02,-4.076254367828369141e-02,-3.420266136527061462e-02
-1.431076377630233765e-01,3.120159730315208435e-02,7.258719950914382935e-02,1.660404801368713379e-01,6.979517638683319092e-02,9.055777639150619507e-02,8.381345123052597046e-02,1.273640692234039307e-01,5.332681909203529358e-02,3.073761239647865295e-02,1.887448430061340332e-01,1.787048578262329102e-01,-1.812682859599590302e-02,-3.423955664038658142e-02,8.116841316223144531e-02,1.729288846254348755e-01,3.202174603939056396e-01,2.257877886295318604e-01,4.934429377317428589e-02,-1.728896796703338623e-02,-5.975145846605300903e-02,1.070238873362541199e-01,2.589735016226768494e-02,1.386510860174894333e-02,1.562495827674865723e-01,7.941990345716476440e-02,3.402898460626602173e-02,-4.816583544015884399e-02,-1.696995832026004791e-02,9.047584608197212219e-03,8.286236971616744995e-02,-4.749788716435432434e-02,1.055314615368843079e-01,3.713462054729461670e-01,2.838641107082366943e-01,1.440128237009048462e-01,4.748405143618583679e-02,-3.319892287254333496e-02,4.125710204243659973e-02,2.837605588138103485e-02,7.402599602937698364e-02,1.818105950951576233e-02,4.603882785886526108e-03,3.214485570788383484e-02,-8.154717087745666504e-02,-2.311726361513137817e-01,-1.759108901023864746e-01,-1.560460925102233887e-01,2.272920869290828705e-02,-2.414681803202256560e-04,3.986121341586112976e-02,-4.562801495194435120e-02,1.528852735646069050e-03,1.240098401904106140e-01,6.906414031982421875e-02,2.343042753636837006e-02,-5.154122784733772278e-02,1.257647294551134109e-02,9.354679286479949951e-02,6.160383112728595734e-03,-1.009965967386960983e-02,-2.631430700421333313e-02,5.543303117156028748e-02,3.636185079813003540e-02,-7.357737421989440918e-02,5.563767999410629272e-02,-1.277647819370031357e-02,-5.300976708531379700e-02,7.517302781343460083e-02,-2.887518331408500671e-02,-6.299858540296554565e-02,4.455371946096420288e-02,5.020541138947010040e-04,6.757622584700584412e-03,-4.718657210469245911e-02,1.226306520402431488e-02,1.127519682049751282e-01,-6.735800206661224365e-02,-3.792971372604370117e-02,1.813312876038253307e-03,-5.589565262198448181e-02,5.637919902801513672e-02,8.318168111145496368e-03,1.085784509778022766e-01,-7.789126038551330566e-02,1.682769507169723511e-02,5.739644542336463928e-02,4.133377969264984131e-02,-7.143446244299411774e-03,1.183724775910377502e-01,-3.378005325794219971e-02,1.261899918317794800e-01,5.887278169393539429e-02,9.945008158683776855e-02,1.224964484572410583e-01,6.396672874689102173e-02
-4.462250694632530212e-02,-1.081493347883224487e-01,-1.751374155282974243e-01,-5.429009324871003628e-04,4.601533338427543640e-02,-7.680016010999679565e-02,1.865947805345058441e-02,-6.776156276464462280e-02,-8.221889846026897430e-03,4.927246645092964172e-02,-4.897318035364151001e-02,7.652924954891204834e-02,1.178000401705503464e-02,3.998320177197456360e-02,9.169825166463851929e-02,6.793883442878723145e-02,5.258590914309024811e-03,1.255664676427841187e-01,8.390926569700241089e-02,6.307052820920944214e-02,-7.503491640090942383e-02,3.468842059373855591e-02,-1.351736579090356827e-02,4.847954586148262024e-02,-6.376733630895614624e-02,8.028038591146469116e-02,1.029892265796661377e-01,-6.806574761867523193e-02,-3.211331367492675781e-02,-5.992458388209342957e-02,-2.511552721261978149e-02,1.171980053186416626e-01,-1.063928082585334778e-01,2.135847881436347961e-02,-1.720783673226833344e-02,5.812654644250869751e-02,-6.925376504659652710e-02,-2.283634804189205170e-02,1.467393040657043457e-01,7.936436682939529419e-02,9.406417608261108398e-02,1.533107608556747437e-01,-3.224494680762290955e-02,1.167633384466171265e-02,-9.616753458976745605e-02,-3.205198794603347778e-02,-9.639157354831695557e-02,-1.397456675767898560e-01,-5.202344805002212524e-02,-6.140326336026191711e-02,-5.722865089774131775e-02,-4.925329983234405518e-02,-5.563809350132942200e-02,-6.085934489965438843e-02,-6.467635929584503174e-02,-8.600727468729019165e-02,1.104964688420295715e-01,1.258085519075393677e-01,-3.861148655414581299e-02,-1.235701665282249451e-01,-1.110915187746286392e-02,8.957397937774658203e-02,1.305084675550460815e-01,2.628334797918796539e-02,9.552578628063201904e-02,-3.294353932142257690e-02,-2.441609464585781097e-02,-1.905714906752109528e-02,-9.934087842702865601e-02,2.589362300932407379e-02,4.442277550697326660e-02,4.287052899599075317e-02,-1.228870898485183716e-01,-7.551933079957962036e-02,-2.719402015209197998e-01,9.295521676540374756e-02,1.329052001237869263e-01,1.129925027489662170e-01,8.615899085998535156e-02,-7.858980447053909302e-02,-1.743151433765888214e-02,7.211828976869583130e-02,-3.638904308900237083e-04,-4.253759607672691345e-02,-7.423219084739685059e-02,1.096132770180702209e-01,3.945412486791610718e-02,6.748745590448379517e-02,3.975818306207656860e-02,-6.070000305771827698e-02,-6.571168079972267151e-03,1.127933114767074585e-01,-2.262476645410060883e-02,2.540466375648975372e-02,1.314844340085983276e-01,8.905709721148014069e-03
1.094477996230125427e-01,2.593526430428028107e-02,1.134830489754676819e-01,-8.116190880537033081e-02,-1.443563997745513916e-01,-1.348398178815841675e-01,7.065285742282867432e-02,1.115621998906135559e-02,1.003378257155418396e-01,2.104051038622856140e-02,1.598521880805492401e-02,3.776151314377784729e-02,-3.413721174001693726e-02,6.979183852672576904e-02,1.017447859048843384e-01,6.839572638273239136e-02,4.473464190959930420e-02,1.964005380868911743e-01,8.201284706592559814e-02,8.770611882209777832e-02,2.157980576157569885e-02,-6.512930244207382202e-02,-6.174254789948463440e-02,-9.919562935829162598e-02,-1.322754025459289551e-01,-2.205742523074150085e-02,3.872072696685791016e-02,7.820250838994979858e-02,5.716366693377494812e-02,8.373750746250152588e-02,1.102048456668853760e-01,3.990914300084114075e-02,1.308347880840301514e-01,1.381089985370635986e-01,1.197861582040786743e-01,1.221969351172447205e-01,-1.270878612995147705e-01,-1.305637508630752563e-01,-2.712476439774036407e-02,1.674489527940750122e-01,7.726434618234634399e-02,7.441329956054687500e-02,-3.311427682638168335e-02,2.995640039443969727e-02,4.490440338850021362e-02,6.909004598855972290e-02,8.079920709133148193e-02,5.215256288647651672e-02,3.347938880324363708e-02,-4.368062596768140793e-03,6.509388331323862076e-03,6.530461460351943970e-02,-3.938204050064086914e-02,1.013066321611404419e-01,-1.183917298913002014e-01,3.282837197184562683e-02,-2.497367002069950104e-02,1.243123412132263184e-01,8.416269719600677490e-02,9.134875237941741943e-02,-2.851958014070987701e-02,-3.452239558100700378e-02,1.383213251829147339e-01,1.771853715181350708e-01,1.149777993559837341e-01,5.153527855873107910e-02,2.309475652873516083e-02,-3.139117266982793808e-03,-8.821067214012145996e-02,-8.326816558837890625e-02,4.971076920628547668e-02,-1.141252182424068451e-02,-8.627130091190338135e-02,-1.145810037851333618e-01,4.583245143294334412e-03,2.533015981316566467e-02,-4.437052411958575249e-04,7.704355567693710327e-02,1.246725320816040039e-01,1.115935593843460083e-01,6.113407015800476074e-02,1.104734838008880615e-02,9.564446657896041870e-02,1.122042834758758545e-01,6.690035760402679443e-02,5.680526047945022583e-02,5.174686014652252197e-02,1.977147161960601807e-02,8.310560137033462524e-02,4.678398370742797852e-02,-8.213692158460617065e-02,-4.263617470860481262e-02,-7.419190555810928345e-02,-2.208787761628627777e-02,4.540580883622169495e-02,6.715430878102779388e-03
-1.577649116516113281e-01,-7.969070971012115479e-02,6.995895504951477051e-02,2.482280880212783813e-01,1.544085144996643066e-01,1.110225394368171692e-01,-9.479173459112644196e-03,-6.408167630434036255e-02,-3.168233111500740051e-02,1.252809464931488037e-01,5.696948152035474777e-03,3.829184919595718384e-03,5.458956584334373474e-03,6.852062791585922241e-02,1.467300504446029663e-01,2.118720561265945435e-01,2.305281311273574829e-01,1.999917924404144287e-01,1.766999252140522003e-02,3.626199811697006226e-02,7.673699408769607544e-02,1.459507495164871216e-01,1.982219517230987549e-01,2.127533704042434692e-01,1.045074909925460815e-01,1.148578152060508728e-01,5.176373198628425598e-02,1.662526726722717285e-01,1.083109080791473389e-01,3.162157908082008362e-02,8.980335295200347900e-02,-6.899407505989074707e-02,9.723402559757232666e-02,1.363206207752227783e-01,1.410274803638458252e-01,1.980432271957397461e-01,1.775762736797332764e-01,1.065630987286567688e-01,7.361913472414016724e-02,-2.390858530998229980e-02,5.781725421547889709e-02,-4.837801307439804077e-02,-2.674240432679653168e-02,-9.197256714105606079e-02,-2.023847699165344238e-01,-3.129307925701141357e-01,-2.595494985580444336e-01,-2.007191330194473267e-01,2.422770112752914429e-02,-7.251306623220443726e-02,5.095204338431358337e-02,6.607149541378021240e-02,1.097497195005416870e-01,1.038222536444664001e-01,1.821602433919906616e-01,3.461471945047378540e-02,-2.321571577340364456e-03,1.620651222765445709e-02,-9.945805184543132782e-03,-1.536133978515863419e-02,7.515843212604522705e-02,-7.304608076810836792e-02,2.629919908940792084e-03,-1.383986473083496094e-01,-8.110760152339935303e-02,-8.848342299461364746e-02,-4.344729334115982056e-02,5.071835592389106750e-02,-9.111948311328887939e-02,1.158919855952262878e-01,6.657373905181884766e-02,3.016520850360393524e-02,1.681695878505706787e-01,1.385569870471954346e-01,1.023233681917190552e-01,-3.479888290166854858e-02,6.275182217359542847e-02,-4.165371507406234741e-02,-4.983352497220039368e-02,1.294263750314712524e-01,1.148352213203907013e-02,8.465890586376190186e-02,3.976020961999893188e-02,1.358260065317153931e-01,1.041368469595909119e-01,-1.016423702239990234e-01,-3.462644666433334351e-02,-3.693106025457382202e-02,9.601862728595733643e-02,1.424691826105117798e-01,3.718828037381172180e-02,5.603354424238204956e-02,2.150936983525753021e-02,6.980790942907333374e-02,1.446569412946701050e-01,-2.397872880101203918e-02
-7.138563692569732666e-02,-4.513914138078689575e-02,-1.222355216741561890e-01,3.337440639734268188e-02,1.776835322380065918e-02,-1.725825965404510498e-01,6.193125247955322266e-02,2.094892552122473717e-03,9.728409349918365479e-02,-7.643108814954757690e-02,8.199822902679443359e-02,-5.593433231115341187e-02,1.127814725041389465e-01,-3.460888192057609558e-02,3.104615956544876099e-02,2.788658626377582550e-02,4.733147099614143372e-02,1.015401165932416916e-02,9.898161143064498901e-02,-2.795173320919275284e-03,-6.661883741617202759e-02,1.549884229898452759e-01,2.273806482553482056e-01,2.160041332244873047e-01,-1.807515625841915607e-03,1.019956693053245544e-01,6.740360707044601440e-02,1.619081385433673859e-02,7.381788641214370728e-02,9.393662214279174805e-03,2.138651721179485321e-02,-6.690765172243118286e-02,-2.021449431777000427e-02,5.012389644980430603e-02,-3.142268210649490356e-02,-1.945606619119644165e-01,1.228743121027946472e-01,1.657935678958892822e-01,5.182036384940147400e-02,6.095729395747184753e-02,1.154999136924743652e-01,1.505452096462249756e-01,3.228608891367912292e-02,-1.622742712497711182e-01,-1.966190934181213379e-01,-3.182077035307884216e-02,-1.103712394833564758e-01,-2.578314207494258881e-02,8.606972545385360718e-02,-2.617507800459861755e-02,4.289113357663154602e-02,7.050048559904098511e-02,-1.821581274271011353e-02,1.044626832008361816e-01,1.248196363449096680e-01,7.232671231031417847e-02,1.073255948722362518e-02,1.339900642633438110e-01,-6.449821591377258301e-02,1.046575158834457397e-01,2.895157411694526672e-02,4.455969110131263733e-02,7.128888368606567383e-02,8.177959173917770386e-02,-8.554420620203018188e-02,-9.690883755683898926e-02,5.790602043271064758e-02,-5.298618599772453308e-02,-3.755278140306472778e-02,9.808002412319183350e-02,-1.873431913554668427e-02,7.663866877555847168e-02,-7.445465028285980225e-02,3.294321894645690918e-02,5.440172925591468811e-02,7.742155343294143677e-02,4.839029163122177124e-02,1.447036117315292358e-01,5.524778366088867188e-02,2.251381054520606995e-02,1.113091409206390381e-01,3.871259093284606934e-02,6.458130478858947754e-02,-9.010600857436656952e-03,4.976359754800796509e-02,5.274869129061698914e-02,6.122887879610061646e-02,9.386739134788513184e-02,1.148476451635360718e-01,9.628716856241226196e-02,3.206504508852958679e-02,1.471218615770339966e-01,1.181367635726928711e-01,1.672663241624832153e-01,1.310804933309555054e-01,5.429606512188911438e-02
-8.090586960315704346e-02,-1.934557221829891205e-02,-8.654947578907012939e-02,2.346472255885601044e-02,-1.243546754121780396e-01,-1.369113177061080933e-01,-2.084000036120414734e-02,8.204013854265213013e-02,1.044765263795852661e-01,-4.848657548427581787e-02,-2.786366082727909088e-02,5.948289111256599426e-02,-4.178386647254228592e-03,-7.147636264562606812e-02,4.166832193732261658e-02,-3.840449824929237366e-02,5.692382901906967163e-02,9.828063100576400757e-02,1.261761188507080078e-01,-6.202570721507072449e-02,1.033219769597053528e-01,6.354211270809173584e-02,1.362691074609756470e-01,1.520291268825531006e-01,9.071276290342211723e-04,3.350679995492100716e-03,-4.611048847436904907e-03,1.109574660658836365e-01,-1.575932651758193970e-02,9.692643582820892334e-02,6.537224352359771729e-02,1.227670237421989441e-01,1.003807187080383301e-01,1.510409414768218994e-01,-3.852282464504241943e-02,-7.836895994842052460e-03,-2.998504973948001862e-02,8.180298656225204468e-02,5.268971994519233704e-02,1.024350151419639587e-01,9.215866774320602417e-02,6.031776219606399536e-02,-2.560183173045516014e-03,-8.205177634954452515e-02,4.217212274670600891e-02,-1.725653856992721558e-01,-1.551854461431503296e-01,-2.058841846883296967e-02,1.093861311674118042e-01,-2.373583801090717316e-02,1.097104474902153015e-01,-1.863719522953033447e-02,-6.514488160610198975e-02,-1.730337156914174557e-03,9.510107338428497314e-02,-2.643623575568199158e-02,1.219216063618659973e-01,2.868196368217468262e-02,3.288603201508522034e-02,3.735961765050888062e-02,-3.687737882137298584e-02,1.439660042524337769e-01,-6.027956958860158920e-03,-3.539103269577026367e-02,-1.610540226101875305e-02,1.005928665399551392e-01,4.516494274139404297e-02,3.513013571500778198e-02,-2.683208696544170380e-02,7.220289856195449829e-02,3.615384548902511597e-02,1.009953841567039490e-01,2.526485826820135117e-03,5.146953836083412170e-02,4.385096952319145203e-02,1.122998520731925964e-01,-1.876030489802360535e-02,9.686912596225738525e-02,-5.749021843075752258e-02,3.327781334519386292e-02,4.702196456491947174e-03,1.046647652983665466e-01,-5.367461964488029480e-02,-6.336644291877746582e-02,8.444574475288391113e-02,1.029527485370635986e-01,1.490414608269929886e-02,5.500115826725959778e-02,1.060835346579551697e-01,3.613764047622680664e-02,1.365623716264963150e-02,9.456158429384231567e-02,1.287194341421127319e-01,4.941327497363090515e-02,1.434696614742279053e-01,8.639126271009445190e-02
-4.940335452556610107e-02,-2.607478387653827667e-02,-9.855836629867553711e-02,1.731860935688018799e-01,5.851936340332031250e-02,2.521152235567569733e-02,2.004599384963512421e-02,-7.499168626964092255e-03,-2.863403223454952240e-02,6.661168485879898071e-02,7.847805321216583252e-02,1.205044388771057129e-01,3.513451665639877319e-02,4.813988693058490753e-03,4.323042556643486023e-02,1.397370398044586182e-01,2.897191941738128662e-01,2.667479515075683594e-01,1.062462776899337769e-01,-5.301890149712562561e-02,1.121872216463088989e-01,5.914201587438583374e-02,-6.663487106561660767e-02,1.396063566207885742e-01,5.220298841595649719e-02,6.378521770238876343e-02,1.309680789709091187e-01,1.057952865958213806e-01,1.297169327735900879e-01,-5.303164944052696228e-02,1.419448554515838623e-01,7.269031554460525513e-02,5.157416686415672302e-02,1.684607416391372681e-01,1.726590991020202637e-01,3.299865424633026123e-01,8.218715339899063110e-02,6.895745545625686646e-02,-1.717110164463520050e-02,-1.893103122711181641e-02,5.533642321825027466e-02,-1.273426320403814316e-02,-7.718082517385482788e-02,4.340789839625358582e-02,9.462823718786239624e-02,-2.584420442581176758e-01,-2.577705085277557373e-01,-1.471152603626251221e-01,-2.100204862654209137e-02,-3.890322148799896240e-02,-4.923024214804172516e-03,2.654286473989486694e-02,-2.703712787479162216e-03,1.045150011777877808e-01,9.241669625043869019e-02,4.299782589077949524e-02,-2.036506496369838715e-02,7.326620072126388550e-02,1.539029926061630249e-01,1.028513386845588684e-01,-8.015666902065277100e-02,3.534868359565734863e-02,8.144779503345489502e-02,2.963019534945487976e-03,1.462446525692939758e-02,1.908300817012786865e-02,5.950527638196945190e-02,8.106008172035217285e-02,-8.008197695016860962e-02,9.585423022508621216e-02,6.517168879508972168e-02,6.506349146366119385e-02,-2.715133875608444214e-02,-2.941604331135749817e-02,1.292206346988677979e-01,6.895370036363601685e-02,5.344022065401077271e-03,1.197909936308860779e-02,9.594012796878814697e-02,-3.015046706423163414e-03,9.317778795957565308e-02,-1.262755715288221836e-03,4.809049889445304871e-02,5.491379648447036743e-02,-3.324650973081588745e-02,1.592349633574485779e-02,3.439869731664657593e-02,-7.763080298900604248e-02,-1.824362552724778652e-03,3.077573515474796295e-02,1.176650151610374451e-01,4.803514853119850159e-02,-5.987771600484848022e-02,3.370140038896352053e-04,1.385979950428009033e-01,3.064527176320552826e-02
2.450539171695709229e-01,1.813876032829284668e-01,2.564251124858856201e-01,-1.124209612607955933e-01,4.332262277603149414e-02,-1.481579709798097610e-02,2.091711200773715973e-02,1.274676024913787842e-01,1.072100028395652771e-01,-3.899012506008148193e-02,4.057540744543075562e-02,1.304542124271392822e-01,4.047213122248649597e-02,-4.640969447791576385e-03,-2.849025093019008636e-02,1.261842697858810425e-01,2.255352437496185303e-01,2.135673463344573975e-01,-1.121844872832298279e-01,-1.564050838351249695e-02,5.455093458294868469e-02,-2.048524171113967896e-01,9.996647015213966370e-03,-5.191205069422721863e-02,-7.850895822048187256e-02,-4.331227857619524002e-03,4.593707993626594543e-02,3.742109611630439758e-02,1.287931948900222778e-01,1.050446853041648865e-01,3.378988057374954224e-02,8.463860303163528442e-02,1.103015020489692688e-01,1.831317543983459473e-01,1.123394295573234558e-01,1.971625387668609619e-01,-1.361231058835983276e-01,-1.743869334459304810e-01,-1.753308624029159546e-02,3.196153417229652405e-02,1.616842597723007202e-01,1.054609715938568115e-01,1.067808791995048523e-01,1.467155218124389648e-01,1.977034211158752441e-01,8.897610008716583252e-02,1.883288919925689697e-01,1.555101871490478516e-01,-1.509975362569093704e-02,4.145397618412971497e-02,-3.212966024875640869e-02,-1.044094469398260117e-02,3.083654865622520447e-02,5.851344764232635498e-02,-1.336800903081893921e-01,1.804181002080440521e-02,-3.711301088333129883e-02,-1.833183877170085907e-02,4.778649657964706421e-02,1.211167275905609131e-01,9.581275284290313721e-02,-5.852038506418466568e-03,1.347466558218002319e-01,2.108797729015350342e-01,6.866673380136489868e-02,1.641292273998260498e-01,-3.985658660531044006e-02,2.625359036028385162e-02,4.418812319636344910e-02,-6.894496828317642212e-02,4.161570221185684204e-02,1.372547447681427002e-01,-4.446177557110786438e-02,-9.631071984767913818e-02,-8.242871612310409546e-03,1.180325597524642944e-01,9.228251874446868896e-02,5.343874916434288025e-02,1.106847729533910751e-02,-2.139864861965179443e-02,1.025876328349113464e-01,-5.089402198791503906e-02,-1.184392906725406647e-02,1.090843975543975830e-01,-3.246898949146270752e-02,6.309573538601398468e-03,-1.285630837082862854e-02,-8.502453565597534180e-02,6.295832991600036621e-02,-1.900622807443141937e-02,-5.388543382287025452e-02,-1.443416159600019455e-02,5.141475051641464233e-02,6.623998284339904785e-02,1.255468875169754028e-01,7.641424983739852905e-02
-1.084735915064811707e-01,-5.944840237498283386e-02,-7.571913301944732666e-02,3.739415481686592102e-02,-9.223493933677673340e-02,-1.674628406763076782e-01,7.112875580787658691e-02,4.168628714978694916e-03,6.690847873687744141e-02,6.523615121841430664e-02,8.117373287677764893e-02,9.995929151773452759e-02,-5.462187528610229492e-02,-6.745249778032302856e-02,1.101095378398895264e-01,1.831046193838119507e-01,7.349004596471786499e-02,2.126366198062896729e-01,3.319276869297027588e-02,-1.695934310555458069e-02,-3.179492428898811340e-02,-5.867249891161918640e-02,9.582147002220153809e-02,-6.220621243119239807e-02,-2.254740521311759949e-02,1.230003088712692261e-01,-2.994934841990470886e-02,1.261366456747055054e-01,7.043138146400451660e-02,9.402082860469818115e-02,6.502321362495422363e-02,1.665880903601646423e-02,9.471818804740905762e-02,1.632585376501083374e-01,6.283282488584518433e-02,3.561090305447578430e-02,-9.001947194337844849e-02,-9.647842496633529663e-03,1.840727217495441437e-02,-1.977773010730743408e-02,5.538914352655410767e-02,7.415520399808883667e-02,6.303999572992324829e-02,1.894854195415973663e-02,1.028902530670166016e-01,-7.182493060827255249e-02,1.564488708972930908e-01,1.293020695447921753e-01,2.019061520695686340e-02,-1.701665669679641724e-02,-6.970749795436859131e-02,-7.659715414047241211e-02,-4.749367758631706238e-02,-4.811432585120201111e-02,4.997901618480682373e-02,-5.780831351876258850e-02,-1.654540747404098511e-01,7.799284160137176514e-02,1.474198047071695328e-02,8.781910687685012817e-02,1.498134136199951172e-01,-1.282495446503162384e-02,-3.443814115598797798e-03,9.180217236280441284e-02,1.399908512830734253e-01,-2.915321849286556244e-02,3.118509985506534576e-02,1.002195850014686584e-01,-1.639394648373126984e-02,-4.207305610179901123e-02,6.769961118698120117e-02,7.572280615568161011e-02,-8.031509816646575928e-02,-1.811031252145767212e-01,-3.035899018868803978e-03,8.142763376235961914e-02,-6.226868368685245514e-03,-6.862297654151916504e-02,9.732437133789062500e-02,6.149351224303245544e-02,-6.608518213033676147e-02,1.163267120718955994e-01,1.014592647552490234e-01,1.121618002653121948e-01,1.436251495033502579e-02,6.999641656875610352e-03,-6.872820854187011719e-02,9.324105083942413330e-02,9.572396986186504364e-03,-9.038372337818145752e-02,1.305129379034042358e-01,1.266421098262071609e-02,7.537426799535751343e-02,3.690671175718307495e-02,6.689068675041198730e-02,1.937215477228164673e-01
1.264539659023284912e-01,-3.196048736572265625e-02,-5.996759235858917236e-02,1.662047803401947021e-01,1.252692341804504395e-01,1.127986535429954529e-01,1.408352553844451904e-01,1.335522234439849854e-01,1.638543792068958282e-02,1.961914300918579102e-01,1.127062067389488220e-01,1.149528548121452332e-01,9.967137128114700317e-02,6.641056854277849197e-03,-4.274853505194187164e-03,2.946864068508148193e-01,2.465236335992813110e-01,4.311864674091339111e-01,-1.795282959938049316e-02,-2.331818826496601105e-02,6.392639875411987305e-02,5.198522936552762985e-03,1.395772583782672882e-02,-2.657445147633552551e-02,2.189753353595733643e-01,7.033282425254583359e-03,2.696012333035469055e-02,6.456485390663146973e-02,-4.908267781138420105e-02,-3.606909140944480896e-02,1.387300342321395874e-01,9.469061344861984253e-02,2.365525998175144196e-02,3.833364248275756836e-01,3.709288239479064941e-01,3.592622876167297363e-01,4.622812196612358093e-02,-2.657438255846500397e-02,3.604609891772270203e-02,-8.018454909324645996e-02,-3.784506022930145264e-02,4.445696249604225159e-03,1.909294873476028442e-01,1.924421638250350952e-01,3.235798776149749756e-01,-1.478857100009918213e-01,-4.854077845811843872e-02,4.479383118450641632e-03,-6.540545076131820679e-02,-8.583812415599822998e-02,-1.591041870415210724e-02,-2.934930287301540375e-02,8.257307112216949463e-02,3.140881657600402832e-02,1.151696871966123581e-02,-9.950563311576843262e-03,-1.741388291120529175e-01,3.533490002155303955e-03,-1.234161667525768280e-02,1.562762111425399780e-01,7.253041863441467285e-02,1.217480003833770752e-01,-2.648501284420490265e-02,7.870999723672866821e-02,1.710750311613082886e-01,1.382719576358795166e-01,6.937285512685775757e-02,9.472227096557617188e-02,-3.197618946433067322e-02,-3.226357325911521912e-02,9.736017137765884399e-02,1.003033444285392761e-01,6.045462563633918762e-02,7.786948978900909424e-02,-1.874157600104808807e-02,-1.090117618441581726e-01,-2.448248416185379028e-01,-4.075433313846588135e-01,7.879449427127838135e-02,7.365629426203668118e-04,6.674145162105560303e-02,1.403314769268035889e-01,2.880560979247093201e-02,1.544037461280822754e-02,-8.665291219949722290e-02,-1.354815252125263214e-02,-1.032665669918060303e-01,8.283209800720214844e-02,9.932269901037216187e-02,3.042656183242797852e-02,1.278618425130844116e-01,7.676232606172561646e-02,8.101972937583923340e-02,6.786141544580459595e-02,-5.943242087960243225e-02,2.446300350129604340e-02
-9.079645574092864990e-02,-1.339474171400070190e-01,-1.541458964347839355e-01,6.015521287918090820e-02,-8.603122085332870483e-02,-2.145770639181137085e-01,-5.346686020493507385e-02,-8.455459028482437134e-02,-3.945440053939819336e-02,2.361909858882427216e-02,2.490141661837697029e-03,-2.018370032310485840e-01,-1.651979796588420868e-02,1.590928994119167328e-02,8.052287250757217407e-02,3.905350342392921448e-02,8.050449937582015991e-02,3.101203776895999908e-02,-8.397012948989868164e-03,-8.445788174867630005e-02,-5.374749191105365753e-03,2.418985217809677124e-01,3.061836063861846924e-01,1.325607746839523315e-01,2.398205250501632690e-01,1.635910011827945709e-02,6.162987649440765381e-02,8.867099881172180176e-02,-1.052471697330474854e-01,-1.217391192913055420e-01,-4.565021395683288574e-02,-1.004098653793334961e-01,-1.130155324935913086e-01,-6.287985015660524368e-03,-7.268718630075454712e-02,-2.145164012908935547e-01,2.007284909486770630e-01,2.523068785667419434e-01,1.427284777164459229e-01,-2.626594528555870056e-02,6.397838890552520752e-02,5.219105258584022522e-02,-6.675599515438079834e-02,-2.874712049961090088e-01,-2.959590852260589600e-01,-2.872834205627441406e-01,-3.823707401752471924e-01,-3.934316635131835938e-01,2.202126383781433105e-02,9.317462332546710968e-03,8.421388268470764160e-02,9.734328836202621460e-02,2.608335204422473907e-02,-2.348073385655879974e-02,6.758098304271697998e-02,1.833200752735137939e-01,2.208035886287689209e-01,5.919998139142990112e-02,-1.312785595655441284e-01,-4.011735692620277405e-02,1.091433614492416382e-01,1.195165440440177917e-01,5.926488712430000305e-02,-7.099861651659011841e-02,-1.228545457124710083e-01,-8.438206464052200317e-02,3.064870275557041168e-02,-8.370400406420230865e-03,-6.517810374498367310e-02,2.710277773439884186e-02,-8.858720958232879639e-02,-7.915402203798294067e-02,-8.867170661687850952e-02,-7.658902555704116821e-02,-2.673293352127075195e-01,-1.223266422748565674e-01,1.228219419717788696e-01,1.781883686780929565e-01,-4.716555029153823853e-02,2.178746834397315979e-02,4.919645562767982483e-02,1.623645871877670288e-01,1.355652511119842529e-02,3.960213810205459595e-02,1.865081191062927246e-01,1.253112405538558960e-01,9.842635691165924072e-02,1.564385741949081421e-01,-4.415057972073554993e-02,4.276084899902343750e-02,2.312098443508148193e-01,3.105519805103540421e-03,-3.715162351727485657e-02,1.057462766766548157e-01,1.578090041875839233e-01,1.862801164388656616e-01
-6.535492837429046631e-02,-1.146671324968338013e-01,-1.034445613622665405e-01,-2.790139913558959961e-01,-1.167895868420600891e-01,-1.320934146642684937e-01,-6.402078270912170410e-02,-5.373623594641685486e-02,7.727521006017923355e-03,1.942879892885684967e-02,2.524950355291366577e-02,1.076108962297439575e-01,-7.935559749603271484e-02,-6.300266087055206299e-02,8.639506995677947998e-02,1.140904650092124939e-01,1.406544297933578491e-01,5.992624443024396896e-03,2.452165633440017700e-02,-9.489905834197998047e-02,-1.057856483384966850e-03,3.856902942061424255e-02,1.000663936138153076e-01,2.021527290344238281e-02,-9.108953177928924561e-02,-9.192472696304321289e-02,-2.249307371675968170e-02,8.276327699422836304e-02,6.745217740535736084e-02,8.743114769458770752e-02,-6.266167759895324707e-02,-5.347225442528724670e-02,1.552634239196777344e-01,4.877664893865585327e-02,-3.799723461270332336e-02,3.324852883815765381e-02,9.806349128484725952e-02,1.142827868461608887e-01,-6.683172285556793213e-02,2.021179161965847015e-02,9.337688237428665161e-02,1.031561940908432007e-01,1.772910729050636292e-02,2.031711339950561523e-01,2.399375587701797485e-01,2.280560284852981567e-01,1.084067150950431824e-01,2.954533100128173828e-01,-7.379789650440216064e-02,8.962003514170646667e-03,-9.712765365839004517e-02,6.626220792531967163e-02,-4.943059012293815613e-02,2.713119983673095703e-02,-4.294744506478309631e-02,-1.362507417798042297e-02,-1.355258375406265259e-01,-6.519766990095376968e-03,3.612654283642768860e-02,1.727744191884994507e-01,1.271303296089172363e-01,9.679435938596725464e-02,1.961468607187271118e-01,1.188951209187507629e-01,6.252877414226531982e-02,8.885999768972396851e-02,-4.072014987468719482e-02,-4.130333662033081055e-02,-3.186510503292083740e-02,3.545897826552391052e-02,-6.870996206998825073e-02,-4.737134650349617004e-02,-9.540924429893493652e-02,-8.852843940258026123e-02,-2.472283132374286652e-02,2.196017652750015259e-01,-1.972992718219757080e-01,-3.305512666702270508e-01,1.435930654406547546e-02,2.852556481957435608e-02,-5.946014076471328735e-02,6.046893820166587830e-02,-4.305239021778106689e-02,9.623041749000549316e-02,3.236279264092445374e-02,1.212602294981479645e-02,9.649432264268398285e-03,5.563860014081001282e-02,1.197847202420234680e-01,4.732657596468925476e-02,8.910495042800903320e-02,-6.097983196377754211e-02,-1.159468316473066807e-03,6.464167684316635132e-02,6.165130808949470520e-02,1.526809930801391602e-01
1.975302398204803467e-01,2.388590723276138306e-01,1.632810384035110474e-01,-5.949263926595449448e-03,-1.497609466314315796e-01,-1.663094758987426758e-01,1.328013986349105835e-01,-1.940961927175521851e-02,1.011614501476287842e-01,-9.337726980447769165e-02,-1.678638458251953125e-01,-1.211473122239112854e-01,-2.297758758068084717e-01,1.196874864399433136e-02,-8.122022449970245361e-02,3.063527941703796387e-01,3.124749064445495605e-01,1.807062029838562012e-01,-3.393087387084960938e-01,-1.365643590688705444e-01,-3.946360573172569275e-02,-3.825722038745880127e-01,1.157461781986057758e-03,-2.017916738986968994e-01,-4.555761516094207764e-01,-1.488568484783172607e-01,-9.175053238868713379e-02,-1.505375206470489502e-01,-2.725238911807537079e-02,-1.257007420063018799e-01,2.127339318394660950e-02,2.868096344172954559e-02,8.166409283876419067e-02,2.421779483556747437e-01,4.293460026383399963e-02,-3.225409612059593201e-02,-4.702875316143035889e-01,-1.283340901136398315e-01,-3.901994228363037109e-02,6.283988058567047119e-02,2.100111097097396851e-01,2.051592320203781128e-01,5.409486293792724609e-01,1.507582515478134155e-01,3.057955950498580933e-02,-5.077002942562103271e-02,-6.396805401891469955e-03,7.505203038454055786e-02,-4.115348681807518005e-02,7.505945861339569092e-02,7.530009001493453979e-02,-3.617166876792907715e-01,-2.498264461755752563e-01,-1.543367952108383179e-01,9.033335745334625244e-02,1.548478901386260986e-01,1.573457568883895874e-01,-7.506384700536727905e-02,-8.799112588167190552e-02,1.280604209750890732e-02,-2.780187129974365234e-01,-2.242317497730255127e-01,-1.761105358600616455e-01,1.605366170406341553e-02,1.704980432987213135e-01,-2.107398118823766708e-03,1.209027599543333054e-02,-9.325228631496429443e-02,6.646598130464553833e-02,-3.419367671012878418e-01,-1.790719926357269287e-01,-7.504741847515106201e-02,7.282408326864242554e-02,4.657796025276184082e-02,-3.304762765765190125e-02,1.232830211520195007e-01,1.881821006536483765e-01,1.838832348585128784e-01,-3.990557417273521423e-02,3.689296543598175049e-02,1.351007521152496338e-01,-2.745711207389831543e-01,-2.244798466563224792e-02,-8.234852552413940430e-02,-1.731427460908889771e-01,-2.174525111913681030e-01,-3.368190675973892212e-02,-1.741840541362762451e-01,3.398691117763519287e-02,3.463724255561828613e-02,-2.793312966823577881e-01,-8.402193337678909302e-02,-1.349241659045219421e-02,-3.710344433784484863e-01,-1.655745357275009155e-01,-6.976668722927570343e-03
-4.873143881559371948e-02,1.620989479124546051e-02,5.580317601561546326e-02,-9.626480937004089355e-02,-1.171440910547971725e-02,-3.241230151616036892e-04,-4.705614596605300903e-02,1.152595654129981995e-01,4.163583368062973022e-02,-4.727096110582351685e-02,2.495510503649711609e-02,8.158815652132034302e-02,8.837382495403289795e-02,-1.700440607964992523e-02,1.081628799438476562e-01,4.463842511177062988e-02,2.750652469694614410e-02,9.513069689273834229e-02,-4.027528688311576843e-02,6.272038072347640991e-02,1.007723808288574219e-01,-9.634002298116683960e-02,-7.624649256467819214e-02,6.570138037204742432e-02,-1.074904855340719223e-02,1.067537590861320496e-01,1.106037199497222900e-01,-3.676439076662063599e-02,9.518392384052276611e-02,-5.948685109615325928e-02,8.009089529514312744e-02,-1.202075462788343430e-02,4.861652851104736328e-02,2.384344190359115601e-01,1.484185457229614258e-01,8.950284123420715332e-02,3.482618927955627441e-02,-2.817684970796108246e-02,8.192159235477447510e-02,-1.202876027673482895e-02,3.947431221604347229e-02,-2.629239484667778015e-02,-7.604145258665084839e-02,-1.064474694430828094e-02,-4.435729235410690308e-02,-1.323668956756591797e-01,-6.232353672385215759e-02,-7.809212803840637207e-02,-4.674768075346946716e-02,1.945227570831775665e-02,-6.315709650516510010e-02,6.982961297035217285e-02,7.945802062749862671e-02,1.098780930042266846e-01,2.877230197191238403e-02,-2.661974914371967316e-02,-4.085106030106544495e-02,4.155487194657325745e-02,1.705044358968734741e-01,1.646355539560317993e-01,1.077714785933494568e-01,2.656090445816516876e-02,-1.721489243209362030e-02,7.344997674226760864e-02,1.336180269718170166e-01,3.001970984041690826e-02,7.930298894643783569e-02,6.894441694021224976e-02,3.587711602449417114e-02,-1.298797130584716797e-02,-1.510491687804460526e-02,6.673249881714582443e-03,-1.850722171366214752e-02,-2.548698708415031433e-02,-1.005504876375198364e-01,4.671999067068099976e-02,5.129586532711982727e-02,1.489676982164382935e-01,6.628343462944030762e-02,-7.264047116041183472e-02,-5.100764706730842590e-02,-4.288054257631301880e-02,1.168882325291633606e-01,5.058469623327255249e-02,1.055686846375465393e-01,-5.668998509645462036e-02,1.240179240703582764e-01,1.017616465687751770e-01,2.729162760078907013e-02,-2.378351800143718719e-02,6.482674181461334229e-02,-2.837709896266460419e-02,-1.311466656625270844e-02,7.006604224443435669e-02,-2.880338393151760101e-02,8.403261005878448486e-02
-3.980690613389015198e-02,-3.511677682399749756e-02,-1.810437068343162537e-02,1.069051492959260941e-02,-6.656695902347564697e-02,5.666074808686971664e-03,-1.196987256407737732e-01,1.627713441848754883e-02,-1.257935911417007446e-01,7.681223750114440918e-02,2.620582003146409988e-03,-7.190800271928310394e-03,-1.973644085228443146e-02,-2.739400044083595276e-02,-8.039741218090057373e-02,-1.178095042705535889e-01,5.056108534336090088e-02,2.805912680923938751e-02,-4.700493067502975464e-02,-2.466354146599769592e-02,-4.799819737672805786e-02,-7.432826608419418335e-02,2.054802514612674713e-02,-8.799884468317031860e-02,-1.239182725548744202e-01,-4.338310658931732178e-02,-9.587983787059783936e-02,-9.244786202907562256e-02,-5.663293227553367615e-02,-4.071987792849540710e-02,4.240583628416061401e-02,2.852742746472358704e-02,4.749029502272605896e-02,6.680723279714584351e-02,1.134670153260231018e-02,-3.796193376183509827e-02,-5.356185138225555420e-02,-1.287720054388046265e-01,-1.666168868541717529e-02,-7.661484926939010620e-02,-7.909052819013595581e-02,4.849876835942268372e-02,2.798960730433464050e-02,4.472091048955917358e-02,2.886988222599029541e-02,-8.602152019739151001e-02,-4.147644620388746262e-03,-4.500795155763626099e-02,3.561178222298622131e-02,5.999074876308441162e-02,-2.561409771442413330e-02,3.962489590048789978e-02,-3.220009058713912964e-02,-5.810225009918212891e-02,2.436022646725177765e-02,3.318442031741142273e-02,-7.011857628822326660e-02,2.633073180913925171e-02,-6.149540469050407410e-02,-4.153444617986679077e-02,-1.142590045928955078e-01,-8.305417001247406006e-02,-1.943184807896614075e-02,-6.698092818260192871e-02,-5.677304416894912720e-02,-7.385914213955402374e-03,-4.054340347647666931e-02,5.391978472471237183e-02,1.000422537326812744e-01,4.534136876463890076e-02,5.892696976661682129e-02,-6.220499053597450256e-02,-7.380881812423467636e-03,-4.467275366187095642e-02,-7.673409581184387207e-02,-3.570005670189857483e-02,4.580242931842803955e-02,-1.076705977320671082e-01,-1.005702838301658630e-01,6.302514811977744102e-04,1.342523563653230667e-02,-7.019836455583572388e-02,-5.407251417636871338e-02,-4.915353283286094666e-02,3.016528114676475525e-02,3.116512671113014221e-02,-8.008765429258346558e-02,-2.798960544168949127e-02,-1.432132273912429810e-01,-1.080452501773834229e-01,-4.649401456117630005e-02,-6.665297597646713257e-02,-8.003187924623489380e-02,3.767224401235580444e-02,1.134997699409723282e-03,-2.503595314919948578e-02
-8.029837161302566528e-02,-5.647711083292961121e-02,2.591390162706375122e-02,-4.369674995541572571e-02,-1.869423314929008484e-02,8.341990411281585693e-03,2.873104996979236603e-02,3.885053098201751709e-02,-6.045932322740554810e-02,1.650233566761016846e-02,-9.513552300631999969e-03,-4.590697120875120163e-03,-1.075939759612083435e-01,7.486300915479660034e-02,4.505127295851707458e-02,-1.317087933421134949e-02,1.578653976321220398e-02,-6.659526377916336060e-02,-9.347326308488845825e-02,-4.851557314395904541e-02,-9.924848377704620361e-02,5.051234364509582520e-02,2.400946803390979767e-02,2.677674032747745514e-02,-1.003249287605285645e-01,-8.852215856313705444e-02,4.584230110049247742e-02,-1.053412482142448425e-01,-4.767871461808681488e-03,3.564640879631042480e-02,-1.085920184850692749e-01,5.142993479967117310e-02,-1.206127330660820007e-01,-5.249227210879325867e-02,4.025439918041229248e-02,4.858383163809776306e-02,5.319039523601531982e-02,6.477609276771545410e-02,-9.841581434011459351e-02,-3.429391607642173767e-02,-1.445008665323257446e-01,2.000902593135833740e-02,8.881913498044013977e-03,5.463482812047004700e-02,-2.167664840817451477e-02,5.036315694451332092e-02,-2.360038273036479950e-02,-8.195772767066955566e-02,-6.711538136005401611e-02,-1.436035614460706711e-03,-9.164984524250030518e-02,5.408612638711929321e-02,-8.253299444913864136e-02,-8.612165600061416626e-02,2.100967243313789368e-02,-1.428757756948471069e-01,-9.745516628026962280e-02,-1.791620254516601562e-02,1.199040096253156662e-02,-4.375186562538146973e-02,3.503224998712539673e-02,-8.468130230903625488e-02,1.981231570243835449e-02,-1.288517713546752930e-01,-1.109436079859733582e-01,3.612628951668739319e-02,4.904979094862937927e-02,-4.556934162974357605e-02,3.581536933779716492e-02,-4.635686427354812622e-02,3.742431849241256714e-02,1.074150484055280685e-02,-6.780733168125152588e-02,-2.730557322502136230e-02,-1.444827467203140259e-01,2.464971039444208145e-04,3.950050100684165955e-02,3.445246443152427673e-02,-9.912149608135223389e-02,-8.846385031938552856e-02,-9.168395400047302246e-02,-4.157203249633312225e-03,-9.102230519056320190e-02,-7.776062935590744019e-02,-5.932180956006050110e-02,6.977584958076477051e-02,2.687992714345455170e-02,-1.120828539133071899e-01,-6.721301376819610596e-02,-8.084316551685333252e-02,-3.670939058065414429e-02,-1.641857251524925232e-02,-6.866234540939331055e-02,-9.916521608829498291e-02,-3.944608196616172791e-02,5.952986888587474823e-03
2.978432178497314453e-01,2.619277238845825195e-01,1.714765578508377075e-01,3.631874173879623413e-02,-1.301476955413818359e-01,-1.852338761091232300e-01,4.352524876594543457e-02,-1.907588541507720947e-02,7.019117474555969238e-02,-2.260952293872833252e-01,-1.511492729187011719e-01,-1.144067645072937012e-01,-9.394934773445129395e-02,-2.160497196018695831e-02,1.497234702110290527e-01,4.478921294212341309e-01,3.166625499725341797e-01,1.836055666208267212e-01,-2.114220261573791504e-01,2.224419265985488892e-02,-6.662019342184066772e-02,-2.818480432033538818e-01,-1.468362808227539062e-01,1.288937479257583618e-01,-1.824949830770492554e-01,-1.983485221862792969e-01,-8.016614615917205811e-02,-1.900551170110702515e-01,6.213447079062461853e-03,-4.927866160869598389e-02,4.442449659109115601e-02,-4.775088280439376831e-03,1.523516476154327393e-01,1.323502510786056519e-01,7.998526841402053833e-02,6.371511518955230713e-02,-3.659265041351318359e-01,-2.212704271078109741e-01,-1.379427015781402588e-01,5.761323496699333191e-02,1.835630685091018677e-01,1.321685463190078735e-01,1.545320153236389160e-01,5.265339091420173645e-02,-5.297842621803283691e-02,-2.691769301891326904e-01,-3.415159285068511963e-01,2.413592115044593811e-02,-6.591429002583026886e-03,8.093623816967010498e-02,2.708201855421066284e-02,-1.725573986768722534e-01,-1.378846168518066406e-01,1.352917519398033619e-03,8.362335711717605591e-02,1.600589901208877563e-01,1.115989759564399719e-01,1.271093543618917465e-02,9.878443181514739990e-02,1.561995297670364380e-01,-5.080032348632812500e-02,5.683468189090490341e-03,1.499436497688293457e-01,7.553862873464822769e-03,1.277423501014709473e-01,1.327322870492935181e-01,-8.074466139078140259e-03,-8.869022130966186523e-02,7.295915856957435608e-03,-2.024541348218917847e-01,-3.772477060556411743e-02,9.783704765141010284e-03,1.056447699666023254e-01,-5.132668465375900269e-02,-1.035625040531158447e-01,1.627478748559951782e-01,3.180006053298711777e-03,1.300520747900009155e-01,-7.459613680839538574e-02,8.145946264266967773e-02,3.008702769875526428e-03,-2.455625236034393311e-01,-7.811816781759262085e-02,1.367404460906982422e-01,-3.726241365075111389e-02,6.534786894917488098e-03,3.352895751595497131e-02,4.508076701313257217e-03,-6.561037153005599976e-02,4.849396646022796631e-02,-2.900298535823822021e-01,-9.025470912456512451e-02,5.255304276943206787e-02,-2.301954925060272217e-01,-9.069686755537986755e-03,4.514628648757934570e-02
3.310001194477081299e-01,1.966061294078826904e-01,2.573010325431823730e-01,1.303984820842742920e-01,-2.021785080432891846e-01,-2.601386010646820068e-01,-2.476524934172630310e-02,-1.100903451442718506e-01,1.420010030269622803e-01,-3.922653496265411377e-01,-1.674267500638961792e-01,-7.435064762830734253e-02,-1.560250371694564819e-01,-5.804320052266120911e-02,1.076640859246253967e-01,5.417325496673583984e-01,3.645621836185455322e-01,1.211334466934204102e-01,-1.371874958276748657e-01,-1.275485903024673462e-01,-1.761039951816201210e-03,-1.468308418989181519e-01,-5.962737649679183960e-02,1.692052185535430908e-01,-2.912596762180328369e-01,-8.550418168306350708e-02,5.226148292422294617e-02,-2.293070107698440552e-01,-2.328355796635150909e-02,-1.252024434506893158e-02,-1.282490193843841553e-01,-7.911516726016998291e-02,-3.263893723487854004e-02,1.119023188948631287e-01,1.356523931026458740e-01,-3.367163240909576416e-02,-2.780450284481048584e-01,-3.594028055667877197e-01,-2.044778615236282349e-01,1.310622245073318481e-01,1.527267545461654663e-01,1.695500463247299194e-01,1.951979845762252808e-01,5.627631023526191711e-02,-7.397907972335815430e-02,-3.371041715145111084e-01,-5.375646352767944336e-01,-1.060428544878959656e-01,-7.989679276943206787e-02,-1.488644722849130630e-02,5.835273116827011108e-02,-3.064984679222106934e-01,-8.256572484970092773e-02,-8.220864832401275635e-02,7.626399397850036621e-02,1.306740939617156982e-01,1.158658042550086975e-01,-5.869179591536521912e-02,-8.848004788160324097e-02,1.500881463289260864e-01,-1.073148548603057861e-01,-8.939888328313827515e-02,3.392202779650688171e-03,-2.888041734695434570e-02,3.263042122125625610e-02,2.518663406372070312e-01,-4.887324944138526917e-02,-6.943033635616302490e-02,-4.526625573635101318e-02,-2.501123249530792236e-01,-6.163405254483222961e-03,3.107187338173389435e-02,3.231710493564605713e-01,3.000903725624084473e-01,6.766673922538757324e-02,2.304508835077285767e-01,1.904207915067672729e-01,1.461166292428970337e-01,6.880155205726623535e-02,1.063238084316253662e-02,1.127077341079711914e-01,-2.790791094303131104e-01,-1.414767354726791382e-01,4.991640895605087280e-02,-1.532880961894989014e-01,-1.383641660213470459e-01,-9.673333913087844849e-02,-2.092620581388473511e-01,-9.272797964513301849e-03,1.976091712713241577e-01,-2.147711515426635742e-01,-5.920800194144248962e-02,-4.114210233092308044e-02,-1.764302700757980347e-01,-2.262396663427352905e-01,4.342019930481910706e-02
3.090296685695648193e-02,-2.668325789272785187e-02,-8.617486804723739624e-02,-1.529196500778198242e-01,-1.206981018185615540e-01,-9.587734192609786987e-02,-1.453236956149339676e-02,7.744343578815460205e-02,1.831971853971481323e-02,5.563605204224586487e-02,-3.959790617227554321e-02,8.233090490102767944e-02,-2.894262783229351044e-02,-5.570677295327186584e-02,-2.081416733562946320e-02,-4.595010075718164444e-03,3.302902728319168091e-02,1.867433488368988037e-01,1.062963008880615234e-01,-4.917951300740242004e-02,5.078369751572608948e-02,-6.560359150171279907e-02,1.020182296633720398e-01,5.690369009971618652e-02,6.711485981941223145e-02,-5.312808230519294739e-02,-2.648067846894264221e-02,1.112264208495616913e-02,-5.893804132938385010e-02,-1.499442197382450104e-02,7.625591009855270386e-02,-3.855709359049797058e-02,7.949166744947433472e-02,1.595490872859954834e-01,1.448336839675903320e-01,1.234009638428688049e-01,-6.703940033912658691e-02,-9.230834990739822388e-02,-8.006879687309265137e-02,1.221051588654518127e-01,3.269967436790466309e-02,1.285574287176132202e-01,2.639784663915634155e-02,5.399561673402786255e-02,1.430507302284240723e-01,-5.692459642887115479e-02,1.330982893705368042e-02,2.116665542125701904e-01,-1.314232312142848969e-02,9.418433159589767456e-02,4.609750118106603622e-03,8.909154683351516724e-02,2.751624025404453278e-02,3.824170678853988647e-02,-1.172658205032348633e-01,-8.238594979047775269e-02,-9.334682673215866089e-02,1.376647800207138062e-01,9.803995490074157715e-02,8.246102929115295410e-02,6.578388810157775879e-02,1.716464906930923462e-01,1.607214063405990601e-01,1.118858307600021362e-01,3.735359059646725655e-03,4.353217780590057373e-02,6.512240320444107056e-02,9.183564037084579468e-02,-4.823710024356842041e-02,6.846631318330764771e-02,1.028366968967020512e-03,8.879126608371734619e-02,-8.230772614479064941e-02,-1.722173541784286499e-01,-1.596353054046630859e-01,9.527299553155899048e-02,8.185980468988418579e-02,-1.304549425840377808e-01,1.076474413275718689e-01,7.042974978685379028e-02,8.283374458551406860e-02,8.046361058950424194e-02,-6.425416469573974609e-02,1.263593696057796478e-02,7.307054847478866577e-02,8.064218610525131226e-02,-6.363374739885330200e-02,-3.697124868631362915e-02,9.514234960079193115e-02,-6.691803038120269775e-02,1.122020259499549866e-01,1.502485852688550949e-02,2.920580096542835236e-02,1.048218980431556702e-01,1.164206415414810181e-01,4.344016313552856445e-02
-6.587193813174962997e-03,-1.216275840997695923e-01,-8.547378331422805786e-02,-1.792464405298233032e-02,-5.325444787740707397e-02,4.158040136098861694e-02,-7.039245218038558960e-02,6.972701102495193481e-02,3.042642399668693542e-02,1.791693828999996185e-02,5.425986275076866150e-02,-8.808773756027221680e-02,-1.048466414213180542e-01,-1.347268000245094299e-02,3.368350118398666382e-02,4.015427827835083008e-02,-8.478204719722270966e-03,8.439522236585617065e-02,2.399490959942340851e-02,3.311282768845558167e-02,-6.522575020790100098e-02,1.504763681441545486e-02,-3.819758072495460510e-02,-9.060390293598175049e-02,-8.109656721353530884e-02,-7.656569778919219971e-02,-5.064132809638977051e-02,-5.980632081627845764e-02,7.607720792293548584e-02,2.442325092852115631e-02,-1.000431850552558899e-01,-1.153809577226638794e-02,7.119593769311904907e-02,-1.500741019845008850e-02,2.833331003785133362e-03,1.340658403933048248e-02,-5.107752233743667603e-02,-8.039409667253494263e-02,-5.183190107345581055e-02,-4.221489652991294861e-02,6.224535778164863586e-02,-9.773240238428115845e-02,2.725171623751521111e-03,-5.092438310384750366e-02,-2.460650354623794556e-02,-1.573546975851058960e-02,-4.595064371824264526e-02,-9.354973211884498596e-03,1.322669535875320435e-02,-7.138385623693466187e-02,5.104008689522743225e-02,7.490804791450500488e-02,-5.974106863141059875e-02,2.159871160984039307e-03,-5.435997247695922852e-02,5.731792002916336060e-02,-1.936113461852073669e-02,-1.043693125247955322e-01,8.959678001701831818e-03,5.791565775871276855e-02,-1.117334794253110886e-02,-3.896865993738174438e-02,-1.545029319822788239e-02,4.425060376524925232e-02,7.355114072561264038e-02,-3.988476842641830444e-02,5.435615777969360352e-02,5.685590207576751709e-02,9.117247164249420166e-02,5.768060684204101562e-02,-9.045735001564025879e-02,-1.076477617025375366e-01,-9.853432327508926392e-02,4.021315276622772217e-02,-7.671645283699035645e-02,4.299372807145118713e-02,-2.926289290189743042e-02,-5.731055513024330139e-02,6.111496314406394958e-02,-3.592631220817565918e-02,-7.176779210567474365e-02,-2.936697751283645630e-02,-8.118276298046112061e-02,-1.150333434343338013e-01,-3.175348788499832153e-02,-1.979455165565013885e-02,-7.283812761306762695e-02,7.353585213422775269e-02,-3.981269150972366333e-02,-4.368353262543678284e-02,6.679894030094146729e-02,-2.506135730072855949e-03,-4.055080562829971313e-02,1.124962326139211655e-02,-1.040059104561805725e-01,8.790414035320281982e-02
2.237951904535293579e-01,2.398597300052642822e-01,1.246894523501396179e-01,9.686078131198883057e-02,-1.873189508914947510e-01,-2.477339953184127808e-01,-7.258892804384231567e-02,-1.076626330614089966e-01,2.543032402172684669e-03,-8.464514976367354393e-04,-1.990246921777725220e-01,-1.307985782623291016e-01,-4.454919323325157166e-02,-1.124134957790374756e-01,-1.289946436882019043e-01,5.700627714395523071e-02,1.415236014872789383e-02,-3.658844530582427979e-02,-1.202127411961555481e-01,-8.213713765144348145e-02,-1.078864708542823792e-01,2.077086269855499268e-02,-4.943887516856193542e-02,-1.831073462963104248e-01,-4.911705851554870605e-03,3.205172019079327583e-03,-9.747004508972167969e-02,2.379683032631874084e-02,-1.214992254972457886e-01,-1.214763894677162170e-01,-2.794665992259979248e-01,-2.802517712116241455e-01,-1.636702418327331543e-01,2.102059274911880493e-01,6.973666138947010040e-03,-1.943016238510608673e-02,1.090590506792068481e-01,-1.866184175014495850e-02,-1.695120781660079956e-01,6.806614995002746582e-02,9.853085875511169434e-02,1.299036294221878052e-01,3.507093191146850586e-01,4.763627052307128906e-02,-1.021283194422721863e-01,-1.948408037424087524e-01,-5.033199191093444824e-01,-3.581930994987487793e-01,6.205167248845100403e-02,-3.938242048025131226e-02,-5.141658335924148560e-02,7.597087323665618896e-02,-1.615590155124664307e-01,-1.397933661937713623e-01,2.585692107677459717e-01,1.514916718006134033e-01,1.057196408510208130e-01,-8.258892595767974854e-02,-1.759380996227264404e-01,-1.951337307691574097e-01,-2.484268099069595337e-01,-2.822220325469970703e-01,-2.429275214672088623e-01,-3.702037334442138672e-01,-3.875982165336608887e-01,-2.904653549194335938e-01,-9.515450894832611084e-02,-9.561959654092788696e-02,2.652860060334205627e-02,2.369713969528675079e-02,-2.508103251457214355e-01,-1.536498218774795532e-01,1.630090475082397461e-01,1.292512565851211548e-01,-8.060809224843978882e-02,2.186020314693450928e-01,2.014014720916748047e-01,2.292255014181137085e-01,3.174478560686111450e-02,4.282026365399360657e-02,1.204099506139755249e-01,-6.235317140817642212e-02,-2.493928968906402588e-01,-7.089620828628540039e-02,1.091366913169622421e-02,-2.145303636789321899e-01,-2.834072709083557129e-01,-1.049238294363021851e-01,-1.090911030769348145e-01,-7.202864438295364380e-02,-1.194078847765922546e-01,-2.304765880107879639e-01,-7.239971309900283813e-02,-6.629743427038192749e-02,-1.699537932872772217e-01,-1.493198573589324951e-01
1.863999962806701660e-01,1.197170019149780273e-01,6.254776567220687866e-02,-4.763317704200744629e-01,-4.253580272197723389e-01,-3.480072617530822754e-01,-8.397807250730693340e-04,-1.251844912767410278e-01,-1.512021869421005249e-01,-1.349256038665771484e-01,-2.054423093795776367e-01,-3.194414079189300537e-01,8.840871602296829224e-02,-1.138323452323675156e-02,-2.077845297753810883e-02,-1.487306654453277588e-01,-1.679295897483825684e-01,-3.741420507431030273e-01,2.944333106279373169e-02,-1.633050143718719482e-01,-1.816154718399047852e-01,2.519340217113494873e-01,4.856090992689132690e-02,-3.446156159043312073e-02,1.485917568206787109e-01,-8.657073974609375000e-02,-1.060715094208717346e-01,1.757832430303096771e-02,-7.238727807998657227e-02,-1.615993976593017578e-01,-1.654953062534332275e-01,-2.392137348651885986e-01,-1.772313416004180908e-01,-3.066108934581279755e-02,-2.656677961349487305e-01,-2.905340194702148438e-01,2.602920532226562500e-01,2.385015971958637238e-02,1.759675890207290649e-01,1.938095241785049438e-01,7.613611966371536255e-02,2.080835253000259399e-01,8.543017506599426270e-02,-1.141399592161178589e-01,-2.074601054191589355e-01,1.301905512809753418e-01,2.585252001881599426e-02,-2.241838276386260986e-01,1.054920256137847900e-02,9.032268822193145752e-02,-4.280925914645195007e-02,1.149713993072509766e-01,-4.876701533794403076e-02,-1.595231518149375916e-02,2.465617805719375610e-01,2.692273557186126709e-01,1.695593744516372681e-01,-8.565547317266464233e-02,-1.552171111106872559e-01,-2.261744439601898193e-01,3.689396427944302559e-03,7.448476552963256836e-02,-1.117827147245407104e-01,-2.543560042977333069e-02,-1.854550689458847046e-01,-9.567512571811676025e-02,-1.909682527184486389e-02,-9.138710051774978638e-02,4.659728333353996277e-02,3.066057153046131134e-02,-7.619205117225646973e-02,-1.536113470792770386e-01,4.160650819540023804e-02,-6.769192218780517578e-02,-1.966442465782165527e-01,1.737085729837417603e-01,2.448150813579559326e-01,2.530976235866546631e-01,2.279690504074096680e-01,1.754108369350433350e-01,4.335590079426765442e-02,4.005881771445274353e-02,2.583680488169193268e-02,-7.906754035502672195e-04,5.760041624307632446e-02,1.456498913466930389e-02,-3.938652202486991882e-02,2.077437639236450195e-01,1.614763140678405762e-01,-2.365251816809177399e-02,6.260707229375839233e-02,1.786110550165176392e-02,-3.857890516519546509e-02,7.864733040332794189e-02,-7.915158569812774658e-02,-9.135050326585769653e-02
1.500433385372161865e-01,6.835633516311645508e-02,-1.443713624030351639e-02,-3.560867905616760254e-01,-3.499555289745330811e-01,-4.571685194969177246e-01,1.439717877656221390e-02,6.669643521308898926e-02,-1.223452761769294739e-01,-3.713828697800636292e-02,-1.385941654443740845e-01,-3.053909540176391602e-01,1.038248240947723389e-01,-8.839411288499832153e-02,-2.111059278249740601e-01,8.010487258434295654e-02,-9.593356400728225708e-02,-3.352363705635070801e-01,1.280078291893005371e-01,-1.459495276212692261e-01,-3.750374019145965576e-01,4.698172211647033691e-02,-2.578409314155578613e-01,-2.377993315458297729e-01,2.600708007812500000e-01,-1.112393289804458618e-01,-3.214806616306304932e-01,-5.029991269111633301e-03,-1.364533156156539917e-01,-2.091594487428665161e-01,-6.298741325736045837e-03,-2.313715517520904541e-01,-1.620345413684844971e-01,4.447199776768684387e-02,-2.292327024042606354e-02,-3.447864055633544922e-01,4.824686050415039062e-02,8.000024408102035522e-02,-2.081195265054702759e-02,2.540337294340133667e-02,1.282429546117782593e-01,-9.881913661956787109e-03,1.894940584897994995e-01,-6.040810421109199524e-02,-2.076840698719024658e-01,-4.158847928047180176e-01,-3.760695755481719971e-01,-2.984243035316467285e-01,4.108285531401634216e-02,7.958602905273437500e-02,-1.133885160088539124e-01,1.600003540515899658e-01,3.315827995538711548e-02,-7.043205201625823975e-02,1.334048509597778320e-01,1.762048751115798950e-01,1.038774773478507996e-01,5.430315062403678894e-02,-5.380747914314270020e-01,-5.039781332015991211e-01,-8.247872442007064819e-02,-2.599102854728698730e-01,-1.005205139517784119e-01,-1.406024694442749023e-01,-2.398103922605514526e-01,-2.603104710578918457e-01,4.162915516644716263e-03,8.184893429279327393e-02,2.963080443441867828e-02,1.286394149065017700e-01,-1.434215009212493896e-01,-4.677195847034454346e-01,-1.272136345505714417e-02,-9.845155477523803711e-02,-2.070959359407424927e-01,2.043045163154602051e-01,3.138034641742706299e-01,1.494335979223251343e-01,-2.869722805917263031e-02,6.177797541022300720e-02,-3.437897888943552971e-03,1.325783878564834595e-01,-1.025606915354728699e-01,-1.857287436723709106e-01,1.871278882026672363e-02,3.218016773462295532e-02,-4.810201749205589294e-02,4.766758531332015991e-02,-6.947614997625350952e-02,-1.809799820184707642e-01,3.920570760965347290e-02,3.053942881524562836e-02,-6.003232300281524658e-02,-1.925191730260848999e-01,-3.083249032497406006e-01,-2.222671657800674438e-01
1.506309807300567627e-01,1.049423143267631531e-01,2.072939276695251465e-01,-2.795513868331909180e-01,-4.382202625274658203e-01,-4.082740843296051025e-01,-3.144090250134468079e-02,-3.285069763660430908e-02,1.506985072046518326e-02,-4.873597994446754456e-02,-1.700727045536041260e-01,-2.425137311220169067e-01,-5.321150645613670349e-02,-3.050154307857155800e-03,4.547809436917304993e-02,4.805570840835571289e-02,-2.663338482379913330e-01,-1.325047910213470459e-01,-2.116542309522628784e-02,-8.208668977022171021e-02,-1.094790771603584290e-01,2.649978995323181152e-01,1.341223418712615967e-01,-1.208678781986236572e-01,9.719523787498474121e-02,3.104563988745212555e-02,-4.292092472314834595e-02,2.437997236847877502e-02,-9.583280235528945923e-02,-1.520280241966247559e-01,-2.155467867851257324e-01,-1.333699822425842285e-01,-1.166549921035766602e-01,-1.822676509618759155e-02,-2.185872197151184082e-01,-1.133075654506683350e-01,4.621207714080810547e-02,1.356566846370697021e-01,-2.588581666350364685e-02,8.199255168437957764e-02,2.712283842265605927e-02,1.092259660363197327e-01,1.522987782955169678e-01,4.749385267496109009e-02,-2.065222412347793579e-01,1.490056216716766357e-01,2.258387580513954163e-02,-1.980766952037811279e-01,2.890218049287796021e-02,7.396669592708349228e-03,4.396932572126388550e-02,1.457888036966323853e-01,-2.446732111275196075e-02,-9.735618531703948975e-02,1.296409070491790771e-01,1.650653183460235596e-01,1.136158406734466553e-01,-1.661159694194793701e-01,-1.593349128961563110e-01,-6.622692942619323730e-02,3.256584703922271729e-02,3.585325926542282104e-02,-7.249719649553298950e-02,5.045528523623943329e-04,-6.510052829980850220e-02,-8.172335475683212280e-02,4.919717833399772644e-02,5.017841234803199768e-02,-4.375404864549636841e-02,9.035961702466011047e-03,-1.098954305052757263e-02,-2.062246501445770264e-01,6.017241626977920532e-02,1.772475801408290863e-02,-1.678465157747268677e-01,5.709005147218704224e-02,1.352175921201705933e-01,1.901134103536605835e-01,1.272596865892410278e-01,-2.888542599976062775e-02,-3.589773923158645630e-02,7.515959441661834717e-02,7.067289203405380249e-02,4.232773557305335999e-02,9.591562300920486450e-02,1.066264659166336060e-01,-4.935575649142265320e-02,4.678302258253097534e-02,-7.837492227554321289e-02,-7.423760741949081421e-02,-1.479699276387691498e-02,-9.811102598905563354e-02,9.092678315937519073e-03,8.087901771068572998e-02,1.409052871167659760e-02,4.318438470363616943e-02
-1.496567577123641968e-01,-1.045460924506187439e-01,-6.155811250209808350e-03,-1.002058684825897217e-01,5.846258997917175293e-02,1.692300103604793549e-02,-9.313160181045532227e-02,9.436893276870250702e-03,-9.791173972189426422e-03,3.407040610909461975e-02,-4.098821431398391724e-02,-6.135919131338596344e-03,6.895612925291061401e-02,5.820195376873016357e-02,-2.295075543224811554e-02,-1.038152500987052917e-01,8.727464824914932251e-02,1.631270162761211395e-02,6.068788096308708191e-02,-1.038590818643569946e-02,-6.566948443651199341e-02,3.444837778806686401e-02,3.078269399702548981e-02,-4.534198343753814697e-02,6.298327352851629257e-03,-1.961526088416576385e-02,3.208165988326072693e-02,3.603529185056686401e-02,-2.989102713763713837e-02,8.140151947736740112e-02,8.732550591230392456e-02,6.990165263414382935e-02,4.934168886393308640e-03,-3.399016801267862320e-03,-6.367959827184677124e-02,6.231972947716712952e-02,-8.365078270435333252e-02,-1.013658195734024048e-01,1.773923449218273163e-02,-1.064462512731552124e-01,1.848367415368556976e-02,-6.297719478607177734e-02,-1.121146045625209808e-02,-5.139323696494102478e-02,7.014351338148117065e-02,-6.669868528842926025e-02,4.559624474495649338e-03,-5.828883498907089233e-02,-1.068840473890304565e-01,7.065495103597640991e-02,1.297964062541723251e-02,-9.259128570556640625e-02,-1.216757446527481079e-01,1.384550239890813828e-02,7.038902491331100464e-02,-3.513211011886596680e-02,-4.091123118996620178e-02,-9.695675969123840332e-02,5.417801812291145325e-02,-5.954329296946525574e-02,-5.703143030405044556e-02,2.664755471050739288e-02,7.700992375612258911e-02,3.699004277586936951e-02,1.683100126683712006e-02,7.745186984539031982e-02,4.340026993304491043e-03,1.578536629676818848e-02,-7.455750368535518646e-03,-5.865687504410743713e-02,3.337376983836293221e-03,-8.692294359207153320e-02,4.798806831240653992e-02,-8.286657184362411499e-02,-9.833038598299026489e-02,-3.067940287292003632e-02,6.543883681297302246e-02,-8.883506059646606445e-02,-4.277839884161949158e-02,-2.082112245261669159e-02,-5.799922347068786621e-02,3.826509043574333191e-02,7.522653043270111084e-02,4.351159930229187012e-02,-3.152634948492050171e-02,-9.187632054090499878e-02,-9.640950709581375122e-02,-3.516560420393943787e-02,-4.524187743663787842e-02,-9.141750633716583252e-02,1.497076079249382019e-02,-5.238335207104682922e-02,1.581768691539764404e-02,-6.442385166883468628e-02,-2.135755307972431183e-02,-4.301486164331436157e-02
