2.505691647529602051e-01,3.176694810390472412e-01,1.829446107149124146e-01,1.143155768513679504e-01,-5.404494702816009521e-02,4.856251180171966553e-02,-1.288361102342605591e-01,-1.883491128683090210e-01,-1.743453741073608398e-01,-1.129299327731132507e-01,4.697897285223007202e-02,-1.992942541837692261e-01,-1.828630417585372925e-01,3.417768776416778564e-01,2.090319842100143433e-01,1.288968324661254883e-01,-4.773307964205741882e-02,-2.712391130626201630e-02,8.902082592248916626e-02,1.674321442842483521e-01,1.928163021802902222e-01,-1.171929836273193359e-01,-3.084890916943550110e-02,7.887350767850875854e-02,4.005421698093414307e-02,-3.543179482221603394e-02,-1.415215153247117996e-02,-2.544960193336009979e-02,-1.064500883221626282e-01,-1.711883023381233215e-02,6.604619324207305908e-02,6.041243299841880798e-02,-1.044785678386688232e-01,1.200857162475585938e-01,2.568386495113372803e-01,4.260489717125892639e-02,5.450815334916114807e-02,1.543109025806188583e-02,-3.238832354545593262e-01,9.286523610353469849e-02,-5.699430778622627258e-02,4.458535462617874146e-02,2.903023660182952881e-01,2.510377764701843262e-01,2.640909552574157715e-01,9.554620832204818726e-02,8.532837033271789551e-02,-9.128100425004959106e-02
-3.514572605490684509e-02,1.799575388431549072e-01,7.310429215431213379e-02,5.790185928344726562e-02,-8.634407073259353638e-02,-6.326421350240707397e-02,4.897862672805786133e-02,-5.639344453811645508e-03,-2.881332337856292725e-01,-9.912555105984210968e-04,8.821748197078704834e-03,-3.020192310214042664e-02,1.663095206022262573e-01,9.927061945199966431e-02,-5.349472630769014359e-03,2.986035943031311035e-01,1.255354583263397217e-01,1.886229775846004486e-02,2.182980477809906006e-01,1.560429036617279053e-01,8.915698854252696037e-04,1.391122639179229736e-01,-7.368421554565429688e-02,5.549272522330284119e-02,7.574930042028427124e-02,-1.922481507062911987e-01,-8.990401402115821838e-03,-1.484902054071426392e-01,-1.156137660145759583e-01,-7.074379175901412964e-02,-1.105986982583999634e-01,1.157199665904045105e-01,-7.905737310647964478e-02,2.222585678100585938e-01,-3.464305028319358826e-02,1.220192462205886841e-01,-8.983570337295532227e-02,-2.409885376691818237e-01,-1.060071289539337158e-01,7.839637249708175659e-02,1.500595211982727051e-01,-7.970886677503585815e-02,2.316856533288955688e-01,3.240598142147064209e-01,1.632788330316543579e-01,4.993470758199691772e-02,7.957094907760620117e-02,-5.658406391739845276e-02
3.036994338035583496e-01,3.066586852073669434e-01,9.416756778955459595e-02,1.026643738150596619e-01,7.050756365060806274e-02,1.272877156734466553e-01,-8.878136053681373596e-03,2.555672265589237213e-02,3.337685763835906982e-02,5.169017612934112549e-02,9.871473163366317749e-02,-9.615708887577056885e-02,2.509495913982391357e-01,1.478331387042999268e-01,2.717788517475128174e-01,1.789822131395339966e-01,5.470189079642295837e-02,8.472215384244918823e-02,3.591969236731529236e-02,1.748033016920089722e-01,-1.230138912796974182e-02,3.771578893065452576e-03,3.374944627285003662e-02,-1.189804673194885254e-01,9.425218403339385986e-02,-1.367533504962921143e-01,-1.407541781663894653e-01,-1.213687658309936523e-01,-9.573826938867568970e-02,-1.349372267723083496e-01,4.453707113862037659e-02,-1.905789226293563843e-02,5.781843885779380798e-02,2.221855670213699341e-01,1.231388375163078308e-01,6.798045360483229160e-04,-1.239279285073280334e-01,-2.121977321803569794e-02,-2.241478115320205688e-01,1.623536497354507446e-01,1.835837662220001221e-01,1.575414538383483887e-01,3.336488008499145508e-01,4.399531781673431396e-01,3.976345062255859375e-01,-8.135519176721572876e-02,1.447207480669021606e-01,-7.995340228080749512e-02
-6.107238680124282837e-02,2.067017406225204468e-01,1.917975842952728271e-01,4.360537976026535034e-02,9.046028368175029755e-03,-1.213862076401710510e-01,8.682192862033843994e-02,2.233909368515014648e-01,2.864136360585689545e-02,2.664158865809440613e-02,-3.592064231634140015e-02,-7.711303979158401489e-02,3.042557537555694580e-01,1.881566047668457031e-01,1.832469999790191650e-01,1.776790618896484375e-01,2.554267942905426025e-01,2.395520508289337158e-01,1.538186967372894287e-01,1.557032465934753418e-01,1.782632023096084595e-01,1.846841126680374146e-01,1.255635619163513184e-01,-9.777180850505828857e-02,-5.747232213616371155e-02,1.116440538316965103e-02,-1.155041232705116272e-01,-9.257312119007110596e-02,-1.110046207904815674e-01,-1.261884719133377075e-01,1.018563657999038696e-01,3.396105393767356873e-02,-8.333093672990798950e-02,5.461936816573143005e-03,-3.150672838091850281e-02,-4.455204308032989502e-02,-9.616231918334960938e-02,-2.022504955530166626e-01,-2.165862917900085449e-01,1.787354201078414917e-01,1.617240756750106812e-01,1.929253935813903809e-01,4.426198825240135193e-02,3.126693367958068848e-01,2.867155373096466064e-01,-7.052461057901382446e-02,-1.029881536960601807e-01,1.155038252472877502e-01
2.071232944726943970e-01,-2.786288559436798096e-01,6.407591104507446289e-01,-5.856050178408622742e-02,-2.492396533489227295e-02,5.463607236742973328e-02,-3.971835598349571228e-02,-2.334184050559997559e-01,-4.832209944725036621e-01,5.705553293228149414e-02,-1.403609216213226318e-01,-1.992379426956176758e-01,3.363418877124786377e-01,-1.397926011122763157e-03,5.616520717740058899e-02,2.376154363155364990e-01,6.545986980199813843e-02,-8.689250051975250244e-02,2.353806793689727783e-01,-1.234000199474394321e-03,-1.138129085302352905e-01,2.999426126480102539e-01,3.771073371171951294e-02,-2.871479690074920654e-01,-1.543885320425033569e-01,-3.109816834330558777e-02,-1.266550272703170776e-01,-1.382683403789997101e-02,-1.455805003643035889e-01,-2.363341152667999268e-01,-1.600219309329986572e-02,1.804210059344768524e-02,-3.049778342247009277e-01,2.146107703447341919e-01,1.904685981571674347e-02,-1.066463664174079895e-01,-1.851453781127929688e-01,-3.164696991443634033e-01,-5.279006361961364746e-01,1.436170488595962524e-01,2.946865260601043701e-01,3.612597584724426270e-01,4.120737016201019287e-01,-9.302204102277755737e-02,-3.569304049015045166e-01,3.837431594729423523e-02,9.591848403215408325e-02,-6.363081187009811401e-02
-2.504581212997436523e-01,-1.053863540291786194e-01,-2.450133860111236572e-02,-3.161785006523132324e-02,-3.968282416462898254e-02,1.249218583106994629e-01,3.366447389125823975e-01,1.915990561246871948e-01,1.363606750965118408e-01,-4.060081392526626587e-02,6.331048905849456787e-02,8.420884609222412109e-02,3.092160522937774658e-01,2.030169516801834106e-01,2.591913640499114990e-01,2.070585936307907104e-01,1.480671167373657227e-01,3.191294968128204346e-01,1.885354071855545044e-01,1.931484639644622803e-01,2.284550573676824570e-03,7.859747856855392456e-02,1.983143091201782227e-01,1.928979158401489258e-01,-9.524738043546676636e-02,-8.494952321052551270e-02,-1.589084416627883911e-01,-1.002157032489776611e-01,-4.561341553926467896e-02,-9.266851097345352173e-02,1.141945086419582367e-02,8.167728781700134277e-02,1.731622591614723206e-02,-4.091453552246093750e-02,1.207203641533851624e-01,-1.741764396429061890e-01,-2.352067083120346069e-01,-2.491881698369979858e-01,-2.322288304567337036e-01,1.658535934984683990e-02,2.121581137180328369e-01,-8.407703600823879242e-03,7.611818611621856689e-02,2.540491521358489990e-01,8.458624780178070068e-02,-1.134039461612701416e-01,-8.025133050978183746e-03,2.611109521239995956e-03
1.052701249718666077e-01,5.121463537216186523e-02,9.696074575185775757e-02,-1.167749166488647461e-01,-8.735186606645584106e-02,2.105694729834794998e-03,1.813769899308681488e-02,1.695181131362915039e-01,4.105665534734725952e-02,7.620390504598617554e-02,7.257998734712600708e-02,1.432248670607805252e-02,-1.415065526962280273e-01,-1.219756975769996643e-01,-1.286685168743133545e-01,1.567099243402481079e-02,1.488872915506362915e-01,1.042644400149583817e-02,2.460027933120727539e-01,1.783650740981101990e-02,1.495011430233716965e-02,-1.038000881671905518e-01,2.194139920175075531e-02,-1.000069752335548401e-01,-1.213062927126884460e-02,-8.785231411457061768e-02,2.295083925127983093e-02,1.392200738191604614e-01,3.805267065763473511e-02,-1.782453209161758423e-01,-1.841403730213642120e-02,-5.443499237298965454e-02,-1.730602085590362549e-01,1.979251354932785034e-01,7.996398210525512695e-02,8.035954087972640991e-02,7.667399942874908447e-03,-3.055974096059799194e-02,2.654066309332847595e-02,8.753893524408340454e-02,4.108498245477676392e-02,-8.281961828470230103e-02,1.547757834196090698e-01,-3.827352449297904968e-02,1.557487249374389648e-01,-9.744247794151306152e-02,8.265522122383117676e-02,-8.837573975324630737e-02
-1.117857992649078369e-01,-1.158033609390258789e-01,-1.688868403434753418e-01,-1.215395852923393250e-01,-1.146770417690277100e-01,8.446644246578216553e-02,2.672086358070373535e-01,2.060672044754028320e-01,-6.615140289068222046e-02,8.354534208774566650e-02,-7.263981550931930542e-02,9.738496690988540649e-02,3.954332768917083740e-01,2.320354729890823364e-01,9.318636357784271240e-02,2.766627371311187744e-01,1.413545608520507812e-01,2.165963202714920044e-01,1.289710253477096558e-01,1.921089291572570801e-01,4.523319378495216370e-02,1.062554642558097839e-01,-8.759308606386184692e-02,-7.897537946701049805e-02,-1.439052373170852661e-01,-9.223520755767822266e-02,-6.398916244506835938e-02,-1.853115409612655640e-01,3.023829124867916107e-02,1.660321056842803955e-01,1.129839196801185608e-01,3.950387239456176758e-02,-1.222229003906250000e-01,-1.052348986268043518e-01,4.860096797347068787e-02,7.164999097585678101e-02,-2.726441025733947754e-01,-1.362342946231365204e-02,1.295915693044662476e-01,1.480960547924041748e-01,-2.735138125717639923e-02,1.427243947982788086e-01,1.987735033035278320e-01,9.611810743808746338e-02,-6.962833926081657410e-03,9.902910888195037842e-02,-1.053690016269683838e-01,1.024787276983261108e-01
3.620077297091484070e-02,2.002077400684356689e-01,1.499074846506118774e-01,3.824456036090850830e-02,-2.213168330490589142e-02,5.927172675728797913e-02,1.153840124607086182e-01,5.884231068193912506e-03,1.154389008879661560e-01,1.618379801511764526e-01,1.107234228402376175e-02,9.151379019021987915e-02,1.008004918694496155e-01,1.437740623950958252e-01,4.935022443532943726e-02,9.456898272037506104e-02,-9.607636928558349609e-02,-1.185098215937614441e-01,2.247121930122375488e-01,6.248482316732406616e-02,1.968089938163757324e-01,-4.079376906156539917e-02,1.611925512552261353e-01,2.318889796733856201e-01,9.898875840008258820e-03,1.372804306447505951e-02,-1.616373360157012939e-01,1.401921957731246948e-01,-9.276602417230606079e-03,-1.249220520257949829e-01,1.739321202039718628e-01,-2.123529650270938873e-02,4.916638508439064026e-02,2.093151658773422241e-01,-4.812930524349212646e-02,-4.582708701491355896e-02,1.152124404907226562e-01,9.361250698566436768e-02,1.614372432231903076e-01,-4.093017056584358215e-02,5.932030035182833672e-04,-1.008521169424057007e-01,-3.160507977008819580e-01,-4.441934823989868164e-01,-1.213129386305809021e-01,6.331246346235275269e-02,-7.750006020069122314e-02,1.660688817501068115e-01
-4.639716446399688721e-01,-3.282460868358612061e-01,-2.670042812824249268e-01,2.176355384290218353e-02,1.390494108200073242e-01,9.897326678037643433e-02,1.698073148727416992e-01,3.705522418022155762e-01,2.702318131923675537e-01,1.063404381275177002e-01,1.747879087924957275e-01,2.156783193349838257e-01,7.685795426368713379e-02,2.259884029626846313e-01,-2.684039250016212463e-02,1.860756576061248779e-01,4.530001431703567505e-02,4.907087609171867371e-02,5.232294276356697083e-02,8.538911491632461548e-02,-2.068483829498291016e-02,1.867924332618713379e-01,2.346457093954086304e-01,1.635894477367401123e-01,2.573611214756965637e-03,1.351823359727859497e-01,2.535919547080993652e-01,-1.329277753829956055e-01,4.896748065948486328e-02,1.714701652526855469e-01,-1.285599321126937866e-01,-9.513460844755172729e-02,1.075572296977043152e-01,-7.135030627250671387e-02,-3.045134246349334717e-02,-1.578597724437713623e-01,-7.808589190244674683e-02,1.409616470336914062e-01,1.103283613920211792e-01,1.465319097042083740e-01,-1.780893281102180481e-02,-3.865002393722534180e-01,-6.754517555236816406e-01,-8.908585309982299805e-01,-5.086926817893981934e-01,-7.821509987115859985e-02,6.232567597180604935e-03,2.881045266985893250e-02
1.295583508908748627e-02,-4.678491875529289246e-02,-2.221188545227050781e-01,1.415750384330749512e-01,-5.348284915089607239e-02,-1.033201962709426880e-01,4.964203760027885437e-02,4.330848902463912964e-02,1.775065809488296509e-01,9.137443453073501587e-02,8.391094952821731567e-02,-2.214072346687316895e-01,-4.336006194353103638e-02,1.247093677520751953e-01,-1.784430444240570068e-02,2.296683341264724731e-01,1.654680371284484863e-01,2.589532546699047089e-02,1.809458434581756592e-01,-3.293294087052345276e-02,-2.320139557123184204e-01,-8.656277507543563843e-02,-9.673383086919784546e-03,-1.332321316003799438e-01,1.538285762071609497e-01,-6.367962062358856201e-02,1.401292681694030762e-01,1.705467998981475830e-01,2.624692628160119057e-03,-2.013604640960693359e-01,4.130418971180915833e-02,-3.155292570590972900e-02,-5.894009955227375031e-03,1.219538450241088867e-01,1.524532437324523926e-01,-3.765937685966491699e-02,2.173583768308162689e-02,4.849847033619880676e-02,-2.008742466568946838e-02,1.298708617687225342e-01,-1.005338951945304871e-01,-1.150213927030563354e-01,1.617339402437210083e-01,2.113415896892547607e-01,4.505660533905029297e-01,-4.153613746166229248e-02,-2.105934619903564453e-01,-9.702251851558685303e-02
1.493917554616928101e-01,1.909479051828384399e-01,5.962570011615753174e-02,-1.431477367877960205e-01,-2.629555575549602509e-02,-1.382134668529033661e-02,-1.932809315621852875e-02,1.228668913245201111e-01,-6.893124431371688843e-02,1.524725556373596191e-01,9.774103015661239624e-02,-4.846564307808876038e-02,1.224518120288848877e-01,1.209071576595306396e-01,-1.761950701475143433e-01,-3.569975495338439941e-02,1.487598568201065063e-01,1.223698630928993225e-01,1.921724975109100342e-01,3.463912606239318848e-01,1.940526962280273438e-01,-8.346835523843765259e-02,3.730444982647895813e-02,8.310340344905853271e-02,-1.086216047406196594e-01,-3.185911476612091064e-02,-1.861552447080612183e-01,1.142732501029968262e-01,1.468563526868820190e-01,9.878642112016677856e-02,5.633227899670600891e-02,8.631826192140579224e-02,-6.319563835859298706e-02,1.202200502157211304e-01,1.181625425815582275e-01,4.592921584844589233e-02,-4.013779386878013611e-02,1.956882029771804810e-01,1.996051669120788574e-01,-1.142593920230865479e-01,6.684303283691406250e-03,2.696706913411617279e-02,1.632225364446640015e-01,-1.496071219444274902e-01,4.569713026285171509e-02,2.476974762976169586e-02,1.700137406587600708e-01,1.746465563774108887e-01
7.106972485780715942e-02,9.119932353496551514e-02,-1.010811924934387207e-01,7.880095392465591431e-02,-7.169596850872039795e-02,1.589334011077880859e-02,-4.351563286036252975e-03,9.308530390262603760e-02,-1.510219066403806210e-03,1.077332645654678345e-01,1.161535605788230896e-01,-1.277004033327102661e-01,-4.806082323193550110e-02,2.338096499443054199e-02,1.559964567422866821e-01,2.298408299684524536e-01,1.361239999532699585e-01,8.632472157478332520e-02,2.193299531936645508e-01,6.675731390714645386e-02,2.307628467679023743e-02,-8.478064835071563721e-02,-2.131663262844085693e-01,-3.431713581085205078e-02,-1.233508139848709106e-01,-1.329609379172325134e-02,2.555489167571067810e-02,-6.519574671983718872e-03,-1.590836048126220703e-01,-1.435929536819458008e-01,6.091625988483428955e-02,8.171156793832778931e-02,-1.965496391057968140e-01,4.446310177445411682e-02,-9.141375124454498291e-02,4.135064408183097839e-02,1.676175743341445923e-01,7.655175775289535522e-02,-1.701210886240005493e-01,1.145500689744949341e-01,1.460110694169998169e-01,9.020937979221343994e-02,3.230949640274047852e-01,3.149518072605133057e-01,4.324263334274291992e-01,-1.036977171897888184e-01,-3.262452781200408936e-02,-6.540316343307495117e-02
1.493615657091140747e-01,8.010198175907135010e-02,6.581338495016098022e-02,4.908397048711776733e-02,-1.265333592891693115e-01,-2.247514016926288605e-02,9.754233062267303467e-02,1.778745464980602264e-02,1.322442591190338135e-01,5.877311341464519501e-03,8.512240648269653320e-02,-4.310282319784164429e-02,1.040244698524475098e-01,2.680221498012542725e-01,1.505382806062698364e-01,6.611566990613937378e-02,-4.879903420805931091e-02,6.185214594006538391e-02,-1.456965785473585129e-02,1.224147006869316101e-01,1.393759697675704956e-01,-1.184687465429306030e-01,-7.879521697759628296e-02,-6.289578974246978760e-02,1.387539505958557129e-01,8.710884302854537964e-02,-5.821404606103897095e-02,6.111166998744010925e-02,-1.611236035823822021e-01,-2.851364016532897949e-01,2.614253573119640350e-02,2.247761003673076630e-02,1.422678381204605103e-01,2.943961881101131439e-02,1.310023069381713867e-01,1.247033104300498962e-01,1.829851716756820679e-01,-1.378410160541534424e-01,9.349081665277481079e-02,-1.197649538516998291e-01,1.251236647367477417e-01,1.798752322793006897e-02,-1.318012475967407227e-01,3.063160926103591919e-02,2.549082040786743164e-02,-1.657982915639877319e-01,-7.928589731454849243e-02,6.223441101610660553e-03
2.628168091177940369e-02,2.262526936829090118e-02,2.262652367353439331e-01,1.807197555899620056e-02,4.864509217441082001e-03,2.761186100542545319e-02,6.809398531913757324e-02,-7.730829715728759766e-02,1.190438941121101379e-01,-1.053804308176040649e-01,-1.458132825791835785e-02,7.819622755050659180e-02,1.283145602792501450e-02,-1.112948581576347351e-01,-8.291446417570114136e-02,1.572658568620681763e-01,-1.157412528991699219e-01,-9.340057522058486938e-02,6.830328702926635742e-02,-1.098624337464570999e-02,-5.512891709804534912e-02,4.816089570522308350e-02,3.508086875081062317e-02,8.651804924011230469e-02,-1.641256660223007202e-01,5.941619351506233215e-02,8.698778599500656128e-02,3.267333377152681351e-03,6.727468222379684448e-02,1.990592777729034424e-01,-9.646104648709297180e-03,-8.008177578449249268e-02,1.381869167089462280e-01,-8.450091816484928131e-03,-2.010102011263370514e-02,-9.875365346670150757e-02,-1.579306870698928833e-01,2.717148512601852417e-02,3.319267034530639648e-01,1.061600893735885620e-01,-1.228986307978630066e-01,-7.872660458087921143e-02,-4.960414767265319824e-01,-3.217930495738983154e-01,-3.676863014698028564e-01,9.906605631113052368e-02,-1.021370589733123779e-01,1.160383969545364380e-01
-1.211471855640411377e-01,-2.829932840541005135e-03,-2.257243730127811432e-02,-1.204911172389984131e-01,-1.376600563526153564e-01,-9.493375569581985474e-02,2.442823946475982666e-01,1.930163353681564331e-01,-3.285647183656692505e-02,-3.123179264366626740e-02,2.417465671896934509e-02,-9.011154621839523315e-02,3.061366081237792969e-01,2.125753015279769897e-01,1.538333599455654621e-03,3.240684419870376587e-02,1.176152452826499939e-01,1.214756146073341370e-01,2.559487521648406982e-01,3.809694200754165649e-02,-4.681278392672538757e-02,1.911218017339706421e-01,9.252651035785675049e-02,5.139668006449937820e-03,-1.597300469875335693e-01,-1.555476933717727661e-01,4.315634444355964661e-02,-1.042683273553848267e-01,5.722598731517791748e-02,1.003894358873367310e-01,2.433310449123382568e-02,3.772949799895286560e-02,5.307613871991634369e-03,9.725987911224365234e-02,-1.447015851736068726e-01,2.816595323383808136e-02,-8.566777408123016357e-02,5.254704505205154419e-02,1.062851399183273315e-02,7.075247913599014282e-02,4.137393459677696228e-02,9.371602535247802734e-02,-2.426603287458419800e-01,-3.439716994762420654e-01,-2.718648314476013184e-01,-3.591616824269294739e-02,7.267681509256362915e-02,1.090009436011314392e-01
2.683839499950408936e-01,4.113345742225646973e-01,1.566646248102188110e-01,-8.098356425762176514e-02,-6.460625678300857544e-02,-9.941896051168441772e-02,-1.060546338558197021e-01,-1.070434153079986572e-01,-5.426329374313354492e-02,4.644295945763587952e-02,1.045047342777252197e-01,1.588562875986099243e-01,1.341506093740463257e-01,-3.980765491724014282e-02,4.089849442243576050e-02,-1.573315113782882690e-01,-1.062284922227263451e-03,-1.545106619596481323e-01,1.762383133172988892e-01,1.662841141223907471e-01,1.649799942970275879e-01,4.628914222121238708e-02,-5.676662176847457886e-02,1.723730266094207764e-01,-3.252277523279190063e-02,-4.883805289864540100e-02,-1.396823972463607788e-01,2.721393108367919922e-02,1.750088483095169067e-02,-3.751059994101524353e-02,1.132204458117485046e-01,-1.155219785869121552e-02,1.173432022333145142e-01,6.519937515258789062e-02,1.535412222146987915e-01,2.401737272739410400e-01,1.559953093528747559e-01,3.333847224712371826e-02,1.310301478952169418e-02,-3.371303156018257141e-02,-4.237010329961776733e-02,-5.470736324787139893e-02,4.504677951335906982e-01,1.981649398803710938e-01,2.609805762767791748e-01,-2.076550014317035675e-02,-7.912207394838333130e-03,-6.955109536647796631e-02
2.815756797790527344e-01,-5.080180987715721130e-02,-4.613457620143890381e-01,-4.640490934252738953e-02,-5.145053565502166748e-02,1.380534619092941284e-01,-7.132650353014469147e-03,1.691254973411560059e-01,7.085307687520980835e-02,9.704524278640747070e-02,9.242438524961471558e-02,4.194199293851852417e-02,-2.511799931526184082e-01,2.618625387549400330e-02,1.499116420745849609e-01,1.346977055072784424e-01,1.824568659067153931e-01,1.630501300096511841e-01,2.173524200916290283e-01,1.022276878356933594e-01,-1.160503104329109192e-01,-2.959254384040832520e-01,-2.233127951622009277e-01,-8.641632646322250366e-02,9.070691466331481934e-02,9.396994858980178833e-02,1.686112284660339355e-01,-3.298670426011085510e-02,-4.961002618074417114e-02,-6.258840113878250122e-02,5.085546895861625671e-02,3.983160108327865601e-02,-1.381367165595293045e-02,5.369043722748756409e-02,4.748179018497467041e-02,4.963676631450653076e-02,-8.461163938045501709e-02,-1.903837770223617554e-01,-7.538761198520660400e-02,9.048910439014434814e-02,5.644273012876510620e-02,1.750577688217163086e-01,1.363074183464050293e-01,1.924095898866653442e-01,1.937944293022155762e-01,7.705174386501312256e-03,-1.415275484323501587e-01,6.649592518806457520e-02
2.748170793056488037e-01,3.348335027694702148e-01,9.566480666399002075e-02,1.153850927948951721e-02,3.931302204728126526e-02,1.098062470555305481e-01,-2.393811792135238647e-01,2.725058980286121368e-02,4.335319250822067261e-02,-8.763792365789413452e-02,3.719928488135337830e-02,-1.104858368635177612e-01,-1.323483884334564209e-01,3.966464847326278687e-02,1.025220081210136414e-01,1.981523931026458740e-01,-2.195763401687145233e-02,1.954822093248367310e-01,-4.758352413773536682e-02,6.666906177997589111e-02,1.267591267824172974e-01,1.729274168610572815e-02,-1.639789342880249023e-01,-6.691069900989532471e-02,8.664793521165847778e-02,8.288144320249557495e-02,-6.759362667798995972e-02,8.135625720024108887e-02,-1.360601782798767090e-01,-1.759718209505081177e-01,1.352993100881576538e-01,-1.153189986944198608e-01,-6.807481497526168823e-02,4.967949911952018738e-02,2.009460330009460449e-01,3.389354422688484192e-02,-9.245160967111587524e-02,-8.565474301576614380e-02,-8.232395350933074951e-02,4.904158785939216614e-02,1.410216093063354492e-01,2.768142707645893097e-02,3.658472001552581787e-01,2.243584543466567993e-01,4.946705102920532227e-01,6.958098709583282471e-02,9.648092836141586304e-02,-8.987853676080703735e-02
2.486602514982223511e-01,2.935169339179992676e-01,9.383735060691833496e-02,-1.147921532392501831e-01,-1.388332843780517578e-01,8.055732585489749908e-03,-1.282529383897781372e-01,-6.169536337256431580e-02,5.441003665328025818e-02,3.982044011354446411e-02,-1.188238561153411865e-01,-3.402955830097198486e-02,-7.763977348804473877e-02,1.317242532968521118e-01,3.363666236400604248e-01,-4.688213020563125610e-02,1.058486551046371460e-01,-1.486497931182384491e-04,8.560130745172500610e-02,2.092904411256313324e-02,1.540261507034301758e-01,-2.154353260993957520e-01,-2.339651063084602356e-02,-1.699020117521286011e-01,2.020726352930068970e-01,-6.321834027767181396e-02,2.762380428612232208e-02,4.009496420621871948e-03,-1.580609939992427826e-02,-1.035284996032714844e-01,1.124187856912612915e-01,5.175874009728431702e-02,-1.396516561508178711e-01,1.413726359605789185e-01,1.817481033504009247e-02,2.235234528779983521e-01,2.505760453641414642e-02,-9.630890190601348877e-02,-2.442985028028488159e-01,2.687174268066883087e-02,-7.096950709819793701e-02,1.243129670619964600e-01,2.926538586616516113e-01,4.067433774471282959e-01,4.948523938655853271e-01,-1.054569110274314880e-01,1.315062791109085083e-01,-2.546657249331474304e-02
1.672348529100418091e-01,1.625680178403854370e-01,2.422540038824081421e-01,1.109593659639358521e-01,2.228425256907939911e-02,6.885812431573867798e-02,-3.471751809120178223e-01,-9.512007236480712891e-02,-1.018767654895782471e-01,3.481301665306091309e-02,-1.196487247943878174e-01,-6.802050024271011353e-02,3.639655886217951775e-03,1.219938620924949646e-01,1.320744631811976433e-03,-1.635029464960098267e-01,-3.269151225686073303e-02,1.571065187454223633e-02,9.519308805465698242e-02,4.900806397199630737e-02,7.105894386768341064e-03,-4.313549026846885681e-03,1.109848320484161377e-01,-2.208415232598781586e-02,1.288422942161560059e-01,9.563353657722473145e-02,9.672040492296218872e-02,5.346053838729858398e-02,2.162212319672107697e-02,8.087061345577239990e-02,8.983526378870010376e-02,1.559813171625137329e-01,-2.463808842003345490e-02,2.818273305892944336e-01,3.008174002170562744e-01,1.063932776451110840e-01,1.613721251487731934e-01,4.855291172862052917e-02,1.477492898702621460e-01,-1.328855901956558228e-01,-7.771063596010208130e-02,4.166939854621887207e-02,1.636817753314971924e-01,1.450013369321823120e-01,2.814415693283081055e-01,9.951388090848922729e-02,1.085846424102783203e-01,-6.017970666289329529e-02
1.392778307199478149e-01,3.364044427871704102e-02,-5.034073814749717712e-02,1.244536042213439941e-01,6.970354169607162476e-02,-3.946745023131370544e-02,5.311383679509162903e-02,1.713510788977146149e-02,-5.744144786149263382e-03,-1.222973968833684921e-02,-4.632800817489624023e-02,1.592495441436767578e-01,1.081886216998100281e-01,6.026427447795867920e-02,-1.191046163439750671e-01,1.538459956645965576e-01,1.275170743465423584e-01,1.423541456460952759e-01,2.422126382589340210e-01,3.245478868484497070e-01,2.189332842826843262e-01,9.088988602161407471e-02,1.543097794055938721e-01,1.561651378870010376e-01,-1.298987865447998047e-01,5.165554583072662354e-02,-8.191540837287902832e-03,-1.117808185517787933e-02,1.337681412696838379e-01,-4.396204650402069092e-02,1.111125126481056213e-01,1.642756611108779907e-01,-8.557450771331787109e-02,4.631297290325164795e-02,-4.894634336233139038e-02,8.513674885034561157e-02,-1.415150016546249390e-01,6.036747246980667114e-03,1.095007881522178650e-01,1.787825375795364380e-01,6.581480056047439575e-02,8.329391479492187500e-02,1.482482552528381348e-01,-3.067064285278320312e-01,-2.523486912250518799e-01,5.967638641595840454e-02,1.820479184389114380e-01,3.662844747304916382e-02
1.505402941256761551e-02,-4.507713392376899719e-02,-2.764198929071426392e-02,-1.112389490008354187e-01,1.155408918857574463e-01,-2.351046167314052582e-02,2.139747142791748047e-02,1.117739900946617126e-01,1.377937644720077515e-01,3.220147639513015747e-02,1.125219985842704773e-01,1.527796685695648193e-01,-6.670718640089035034e-02,-1.352467089891433716e-01,-3.384551405906677246e-02,-6.534025073051452637e-02,-9.113965928554534912e-02,1.725935786962509155e-01,8.776014298200607300e-02,4.563445970416069031e-02,7.460757344961166382e-02,9.097149013541638851e-04,1.783972233533859253e-01,3.140818327665328979e-02,-1.413451582193374634e-01,-1.373931914567947388e-01,6.189462915062904358e-02,-2.857652120292186737e-02,1.167390029877424240e-02,9.403154253959655762e-03,-2.401363849639892578e-02,7.690422981977462769e-02,1.719074696302413940e-01,-4.566837102174758911e-02,5.799319595098495483e-02,-5.937694758176803589e-02,-9.795372188091278076e-02,1.793981492519378662e-01,9.664740413427352905e-02,2.186801135540008545e-01,3.141927300021052361e-04,-6.536296755075454712e-02,-4.999508559703826904e-01,-3.927090764045715332e-01,-5.775870084762573242e-01,1.344729512929916382e-01,9.107711166143417358e-02,9.547580033540725708e-02
1.066018939018249512e-01,8.149001002311706543e-02,2.314416468143463135e-01,-1.149713620543479919e-01,-5.077110603451728821e-02,1.056354343891143799e-01,1.834189891815185547e-01,3.558659180998802185e-02,5.454012006521224976e-02,-9.336201846599578857e-02,1.295107454061508179e-01,8.105361461639404297e-02,8.360591530799865723e-02,7.352793961763381958e-02,8.768860250711441040e-02,-1.109120696783065796e-01,-1.011857241392135620e-01,9.723745286464691162e-02,3.320692479610443115e-02,-4.625243321061134338e-02,-1.819849200546741486e-02,1.281799972057342529e-01,1.610007435083389282e-01,1.150889396667480469e-01,3.326735645532608032e-02,-1.902247667312622070e-01,1.118311565369367599e-02,-1.450002491474151611e-01,5.766429379582405090e-02,1.290224343538284302e-01,7.922894507646560669e-02,1.653158366680145264e-01,-3.004233539104461670e-02,-1.980692893266677856e-01,-1.554808467626571655e-01,1.374658495187759399e-01,4.361838474869728088e-02,-6.206628680229187012e-02,1.664575487375259399e-01,4.475318267941474915e-02,-1.624998748302459717e-01,1.647595167160034180e-01,-4.218596220016479492e-01,3.068258613348007202e-02,4.656817018985748291e-02,1.641372889280319214e-01,1.189236640930175781e-01,1.817946434020996094e-01
2.241927087306976318e-01,9.562510997056961060e-02,-2.131389081478118896e-01,2.695335447788238525e-02,-1.026627942919731140e-01,4.443025216460227966e-02,-1.412658691406250000e-01,-1.966868489980697632e-01,-2.864101231098175049e-01,-1.173380762338638306e-01,8.904235810041427612e-02,5.282690376043319702e-02,1.514834761619567871e-01,3.402881324291229248e-02,-1.113330423831939697e-01,4.205273836851119995e-02,2.266880124807357788e-01,8.045509457588195801e-02,2.210335582494735718e-01,2.177206575870513916e-01,-7.150167971849441528e-02,-2.848906815052032471e-02,-3.641350194811820984e-02,-9.822300076484680176e-02,8.789320290088653564e-02,-1.076431795954704285e-01,-8.977095596492290497e-03,-9.968630224466323853e-02,1.046280190348625183e-02,-2.113219499588012695e-01,-6.425914913415908813e-02,6.397668272256851196e-03,1.036644577980041504e-01,2.575473487377166748e-01,1.488947588950395584e-02,7.040913403034210205e-02,-1.219097077846527100e-01,-1.005001962184906006e-01,-2.549640536308288574e-01,-5.067357048392295837e-02,1.090972200036048889e-01,-1.480725854635238647e-01,1.247478649020195007e-01,2.187536507844924927e-01,2.202501296997070312e-01,-2.033198252320289612e-04,1.519483029842376709e-01,-7.310838252305984497e-02
-3.078194521367549896e-02,-9.056262671947479248e-02,1.514049470424652100e-01,-3.682924807071685791e-02,8.929560333490371704e-02,-8.102809078991413116e-03,8.472546935081481934e-02,-3.513599513098597527e-03,1.024655252695083618e-01,1.533020138740539551e-01,-1.458085030317306519e-01,-4.507761076092720032e-02,-6.365704350173473358e-03,2.376510500907897949e-01,-9.769819676876068115e-03,1.212224289774894714e-01,3.421558737754821777e-01,-8.216899633407592773e-02,2.765819132328033447e-01,1.102653797715902328e-02,2.033853679895401001e-01,-1.476715207099914551e-01,8.222887665033340454e-02,2.215004293248057365e-03,8.085522055625915527e-02,1.185945197939872742e-01,-1.407464891672134399e-01,-9.173981100320816040e-02,8.545792847871780396e-02,-1.543252468109130859e-01,-8.160956948995590210e-02,-1.301821228116750717e-02,-8.337026834487915039e-02,9.310971945524215698e-02,-2.311469428241252899e-02,7.914754748344421387e-02,-1.766736209392547607e-01,-7.563799619674682617e-02,-1.563910045661032200e-03,1.114221662282943726e-01,6.115874275565147400e-02,6.417395919561386108e-02,1.293031275272369385e-01,2.716446518898010254e-01,3.226524591445922852e-01,-8.685374259948730469e-02,-6.016684696078300476e-02,1.686576753854751587e-01
-2.414942160248756409e-02,4.974109306931495667e-02,9.481439739465713501e-02,-1.127373799681663513e-02,-7.763706147670745850e-02,-9.776870161294937134e-02,-5.559349432587623596e-02,4.851854592561721802e-02,-1.215294823050498962e-01,-1.856241375207901001e-02,5.200279876589775085e-02,1.081449016928672791e-01,4.342916980385780334e-02,2.838697098195552826e-02,9.878652542829513550e-02,6.425869464874267578e-02,4.643509536981582642e-02,-4.474495723843574524e-02,-1.164490655064582825e-01,-3.117080964148044586e-02,-3.041957877576351166e-02,9.101541712880134583e-03,-1.657219976186752319e-02,5.834120512008666992e-02,9.568821638822555542e-02,-6.043386831879615784e-02,-1.434076279401779175e-01,-7.404096424579620361e-02,-6.992366909980773926e-02,7.284778356552124023e-02,-9.492003917694091797e-02,-1.627403870224952698e-02,-3.154662251472473145e-02,-8.947028219699859619e-02,6.508583575487136841e-02,-6.214090809226036072e-02,-9.246850386261940002e-03,-1.041606888175010681e-01,-2.097198180854320526e-02,2.050511352717876434e-02,-5.871898494660854340e-03,-5.391858145594596863e-02,4.287391901016235352e-02,-3.739110380411148071e-02,-8.000776916742324829e-02,-1.064135953783988953e-01,-3.367035463452339172e-02,-1.406652629375457764e-01
2.546496391296386719e-01,1.594300381839275360e-02,-5.749287083745002747e-02,1.333922427147626877e-02,3.741068765521049500e-02,-1.360673177987337112e-02,1.951772570610046387e-01,4.768419265747070312e-02,1.523866653442382812e-01,-4.878205945715308189e-04,-1.320073157548904419e-01,-8.147495239973068237e-02,1.237377002835273743e-01,2.390603274106979370e-01,2.749364972114562988e-01,2.571519613265991211e-01,6.195114180445671082e-02,8.095652610063552856e-02,6.484163552522659302e-02,9.188390336930751801e-03,-5.166185554116964340e-03,-1.661608964204788208e-01,5.764112994074821472e-02,1.065124198794364929e-01,7.718934863805770874e-02,-8.594981580972671509e-02,-1.019209250807762146e-01,-5.924933403730392456e-02,4.724637605249881744e-03,-4.573884233832359314e-02,1.723676733672618866e-02,1.158600449562072754e-01,3.744546696543693542e-02,6.230889633297920227e-02,3.108548372983932495e-02,1.100911945104598999e-01,8.362177014350891113e-02,-1.810230016708374023e-01,-2.120470404624938965e-01,1.318403054028749466e-02,1.118116080760955811e-01,1.121450141072273254e-01,5.430303886532783508e-02,1.497389525175094604e-01,4.216817915439605713e-01,-4.688872024416923523e-02,3.139638155698776245e-02,-5.903899297118186951e-02
1.227905079722404480e-01,1.121859624981880188e-01,2.440717667341232300e-01,-1.004786863923072815e-01,5.772740393877029419e-02,1.719550043344497681e-02,2.333299256861209869e-02,1.568033248186111450e-01,-4.921692982316017151e-02,1.585430204868316650e-01,3.239242732524871826e-02,5.162950977683067322e-02,1.810839772224426270e-01,3.485349193215370178e-02,2.015840820968151093e-02,1.480210721492767334e-01,-1.440864950418472290e-01,1.068341061472892761e-01,1.165725365281105042e-01,-3.921753913164138794e-02,8.707454800605773926e-02,2.018139660358428955e-01,-3.795082494616508484e-02,-5.982451885938644409e-02,8.154156804084777832e-02,-7.132039964199066162e-02,1.124160364270210266e-02,-4.187657684087753296e-02,2.049019187688827515e-02,7.899211347103118896e-02,-7.767313718795776367e-02,-5.997484922409057617e-02,1.111046373844146729e-01,3.383547812700271606e-02,-6.360454857349395752e-02,-1.427117586135864258e-01,1.621714532375335693e-01,6.465676426887512207e-02,3.629348799586296082e-02,-5.449138116091489792e-04,-9.603092819452285767e-02,5.011369287967681885e-02,-1.552388668060302734e-01,-8.018687367439270020e-02,-2.284374833106994629e-01,-2.008554711937904358e-02,8.835545927286148071e-02,2.938413061201572418e-02
4.691355861723423004e-03,7.564122229814529419e-02,1.578785777091979980e-01,3.601296246051788330e-02,1.004792377352714539e-01,9.352345019578933716e-02,1.931178420782089233e-01,1.899393349885940552e-01,1.964256912469863892e-01,4.433524236083030701e-02,1.396497935056686401e-01,1.143371760845184326e-01,2.199670821428298950e-01,1.249167770147323608e-01,1.287004947662353516e-01,-3.996900841593742371e-02,1.513312309980392456e-01,7.250713557004928589e-02,2.442938387393951416e-01,1.073097139596939087e-01,-1.093997359275817871e-01,1.658630967140197754e-01,-4.391871858388185501e-03,8.749639987945556641e-02,5.241672694683074951e-02,-1.370040774345397949e-01,4.137041047215461731e-02,-8.856793493032455444e-02,8.352956920862197876e-02,-1.235658898949623108e-01,7.720859348773956299e-02,6.762805581092834473e-02,8.032480627298355103e-02,1.876702606678009033e-01,8.784481137990951538e-02,-8.457498252391815186e-02,1.831576377153396606e-01,7.894376665353775024e-02,5.668469890952110291e-02,-9.872745722532272339e-02,5.916260182857513428e-03,-1.019153594970703125e-01,2.118224501609802246e-01,3.258970975875854492e-01,4.151043295860290527e-01,7.609049230813980103e-02,-1.109824553132057190e-01,-8.325064182281494141e-02
2.362253814935684204e-01,-1.167546212673187256e-01,-4.292832016944885254e-01,4.902830719947814941e-02,1.156398653984069824e-01,-6.750353146344423294e-03,-1.677031815052032471e-01,2.254909835755825043e-02,1.627224832773208618e-01,1.428639292716979980e-01,5.634639039635658264e-02,-1.086448132991790771e-01,-1.682301461696624756e-01,1.213419213891029358e-01,3.058615624904632568e-01,6.563093513250350952e-02,1.968183070421218872e-01,1.675065010786056519e-01,4.711762443184852600e-02,1.774413287639617920e-01,-7.777182012796401978e-02,-2.888645827770233154e-01,-2.108757644891738892e-01,-1.546847969293594360e-01,3.989188373088836670e-02,-2.118970267474651337e-02,-2.159937173128128052e-01,6.151748076081275940e-02,-2.570723295211791992e-01,-3.169185519218444824e-01,-4.462786018848419189e-02,-6.984721124172210693e-02,-5.299370735883712769e-02,1.087004877626895905e-02,1.047276407480239868e-01,-1.152502149343490601e-01,-4.803135246038436890e-02,-1.658725589513778687e-01,-1.381673514842987061e-01,2.285316288471221924e-01,2.013057470321655273e-01,6.118408963084220886e-02,2.733926847577095032e-02,2.403636574745178223e-01,2.826589047908782959e-01,6.205096095800399780e-02,-5.550108104944229126e-02,1.075942888855934143e-01
-5.241591483354568481e-02,-8.008381724357604980e-02,-1.477410364896059036e-02,3.456041589379310608e-02,-1.790724322199821472e-02,1.164453476667404175e-01,-2.853151857852935791e-01,-1.202204003930091858e-01,-2.932830452919006348e-01,-3.945579379796981812e-02,4.212675616145133972e-02,1.597673743963241577e-01,1.318731717765331268e-02,-1.361230611801147461e-01,-1.537195742130279541e-01,-1.027936264872550964e-01,-1.907785683870315552e-01,-1.749088019132614136e-01,9.608065336942672729e-02,1.878755539655685425e-01,1.451240181922912598e-01,-1.226027980446815491e-01,-9.330281172879040241e-04,-7.210488617420196533e-02,7.837752997875213623e-02,-8.031518082134425640e-04,1.194004788994789124e-01,2.292430959641933441e-02,2.881819903850555420e-01,2.700267434120178223e-01,-4.368687048554420471e-02,-9.452619403600692749e-02,4.719483107328414917e-02,9.777187556028366089e-02,1.586694717407226562e-01,-2.329673618078231812e-02,2.193478494882583618e-01,9.277794510126113892e-02,1.320963650941848755e-01,-1.841962337493896484e-02,-1.279470883309841156e-02,-9.844850003719329834e-02,2.726485729217529297e-01,-4.711439609527587891e-01,-5.559530258178710938e-01,-7.478822767734527588e-02,6.388728320598602295e-02,9.723486751317977905e-02
