-9.731878340244293213e-02,6.676263362169265747e-02,8.335570991039276123e-02,-1.277076601982116699e-01,-1.935426294803619385e-01,-1.449584066867828369e-01,-1.279419362545013428e-01,-4.940797761082649231e-02,5.774246994405984879e-03,-1.862221658229827881e-01,-2.323746830224990845e-01,-1.907978057861328125e-01,4.239920675754547119e-01,9.020715951919555664e-02,4.753187298774719238e-02,-2.065348178148269653e-01,-1.146954447031021118e-01,-1.628852933645248413e-01,3.914686664938926697e-02,4.471835866570472717e-02,1.183470562100410461e-01,8.556406944990158081e-02,5.645661428570747375e-02,2.512112632393836975e-02,1.697245389223098755e-01,1.946669816970825195e-01,1.672177612781524658e-01,-1.884991824626922607e-01,-1.523627638816833496e-01,-1.377246826887130737e-01,1.924390532076358795e-02,-9.404693543910980225e-02,3.358379006385803223e-02,1.243250370025634766e-01,2.674872577190399170e-01,2.612021565437316895e-01,-2.703766524791717529e-02,-7.760761678218841553e-02,-2.073328942060470581e-02,1.303644031286239624e-01,4.117925092577934265e-02,6.460631638765335083e-02,1.070954799652099609e-01,1.231731027364730835e-01,7.986285537481307983e-02,1.483597308397293091e-01,1.906346678733825684e-01,6.559627503156661987e-02,1.622542440891265869e-01,1.352796107530593872e-01,1.342263072729110718e-01,-1.237372457981109619e-01,-1.012012455612421036e-02,9.573309682309627533e-03,-1.580804139375686646e-01,-6.318635493516921997e-02,3.297034278512001038e-02,-3.391689434647560120e-02,-3.593651205301284790e-02,-3.574422001838684082e-02,9.794856607913970947e-02,8.893059194087982178e-02,5.853184685111045837e-02,1.093310043215751648e-01,1.306467950344085693e-01,1.904683411121368408e-01,1.509615629911422729e-01,1.896953433752059937e-01,2.529126703739166260e-01,2.230328619480133057e-01,1.883038878440856934e-01,2.076410651206970215e-01,-1.474823653697967529e-01,-1.515551805496215820e-01,-6.004546582698822021e-02,-1.480545997619628906e-01,-7.654540985822677612e-02,-2.440179698169231415e-02,2.061695978045463562e-02,9.158908575773239136e-02,-5.219164863228797913e-02,-2.006451785564422607e-02,-1.243514008820056915e-02,-4.127693921327590942e-02,6.102161109447479248e-02,1.029588505625724792e-01,1.064137518405914307e-01,6.634667515754699707e-02,-3.916906192898750305e-03,1.290313303470611572e-01,-1.964148133993148804e-01,-1.569356173276901245e-01,-1.033726632595062256e-01,1.785576194524765015e-01,1.142076849937438965e-01,1.402579098939895630e-01
1.113194152712821960e-01,1.970571279525756836e-01,2.524922490119934082e-01,-1.264906115829944611e-02,1.262009292840957642e-01,3.554615378379821777e-02,1.276175975799560547e-01,2.106149047613143921e-01,9.193354845046997070e-02,-8.818290382623672485e-02,-1.867531090974807739e-01,-2.762178480625152588e-01,3.244415521621704102e-01,3.502858877182006836e-01,2.565267086029052734e-01,-3.792181313037872314e-01,-3.578411638736724854e-01,-3.519524335861206055e-01,-6.029449030756950378e-02,5.187620967626571655e-02,5.051406472921371460e-02,-7.975071668624877930e-02,3.785716742277145386e-02,-1.217342093586921692e-01,-5.276622250676155090e-02,2.239323407411575317e-02,-3.936452418565750122e-02,-4.655604660511016846e-01,-6.339405775070190430e-01,-6.730283498764038086e-01,-9.107408672571182251e-02,9.588539251126348972e-04,-8.944103866815567017e-02,1.679104268550872803e-01,1.130106579512357712e-02,1.041612327098846436e-01,-1.733106225728988647e-01,-1.516452282667160034e-01,-4.906214028596878052e-02,2.889662235975265503e-02,9.325378388166427612e-02,4.824613034725189209e-02,-2.922786474227905273e-01,-7.609930634498596191e-01,-7.325257658958435059e-01,-6.156547740101814270e-02,-4.981391876935958862e-02,-1.651418805122375488e-01,-3.742321953177452087e-02,1.395088732242584229e-01,-5.847183521836996078e-03,3.864743933081626892e-02,2.729386650025844574e-02,7.572203129529953003e-02,1.787513643503189087e-01,6.919211894273757935e-02,8.536284416913986206e-02,1.913226991891860962e-01,1.942434459924697876e-01,6.332013290375471115e-03,1.378168165683746338e-01,4.436706379055976868e-02,9.345782548189163208e-02,1.089805960655212402e-01,3.282715380191802979e-02,3.767580166459083557e-02,-7.648523151874542236e-02,4.039603844285011292e-02,-5.778857972472906113e-03,6.206922978162765503e-02,1.201850268989801407e-02,-3.648072481155395508e-02,1.980584114789962769e-01,2.504860758781433105e-01,2.253459095954895020e-01,4.891199991106987000e-03,1.002887561917304993e-01,3.316678479313850403e-02,7.518213987350463867e-02,8.863314986228942871e-02,1.118552777916193008e-02,-3.322102827951312065e-03,1.301011443138122559e-01,-4.008723795413970947e-02,7.686422020196914673e-02,-1.237477213144302368e-01,-1.371233612298965454e-01,-1.411254256963729858e-01,-5.614200606942176819e-02,4.896330088376998901e-02,-4.773234575986862183e-02,1.067252457141876221e-02,1.884329468011856079e-01,2.156219333410263062e-01,1.058146059513092041e-01,-8.537044376134872437e-02
-1.189382933080196381e-02,-1.426660828292369843e-02,1.108648106455802917e-01,-6.534357368946075439e-02,-6.281344592571258545e-02,-8.549448102712631226e-02,7.285250723361968994e-02,1.868174076080322266e-01,2.117332667112350464e-01,-2.466793172061443329e-02,-4.100045189261436462e-02,1.105671972036361694e-01,-5.212396979331970215e-01,-6.367254853248596191e-01,-5.165602564811706543e-01,-1.404106318950653076e-01,1.521304156631231308e-02,7.062506675720214844e-02,8.743390440940856934e-02,-1.147931441664695740e-02,7.410084456205368042e-02,-7.352977991104125977e-02,-6.668385863304138184e-02,-3.323624655604362488e-02,-6.515131145715713501e-02,-4.892453178763389587e-02,-8.400594443082809448e-02,-1.088318452239036560e-01,-8.224921673536300659e-02,-7.859877496957778931e-02,-4.543504491448402405e-02,9.261871874332427979e-02,-2.811968885362148285e-02,4.926382377743721008e-02,6.968416273593902588e-02,-6.004451960325241089e-02,2.353469282388687134e-02,7.824800163507461548e-02,1.201732233166694641e-01,-4.271849524229764938e-03,1.038894355297088623e-01,-4.542802646756172180e-02,-3.114113956689834595e-02,5.713748559355735779e-02,-7.378308475017547607e-02,8.064319938421249390e-02,-9.430759586393833160e-03,-4.437817260622978210e-02,1.208519637584686279e-01,1.067605614662170410e-01,3.233012929558753967e-02,4.113148897886276245e-02,8.861777931451797485e-02,6.626959890127182007e-02,1.290572285652160645e-01,6.105527281761169434e-02,1.013671383261680603e-01,1.396610140800476074e-01,1.134446561336517334e-01,3.479720279574394226e-02,1.023931354284286499e-01,6.810562312602996826e-02,-4.684061557054519653e-02,6.779091805219650269e-02,2.410494536161422729e-02,-9.082943201065063477e-03,-7.364516705274581909e-02,-2.211253158748149872e-02,-1.004704013466835022e-01,5.881594493985176086e-02,8.443314582109451294e-02,-5.733126774430274963e-03,5.235566198825836182e-02,-7.749987393617630005e-02,1.526018604636192322e-02,-6.795933842658996582e-02,-5.147196352481842041e-03,4.325344040989875793e-02,4.395525157451629639e-02,-3.421595552936196327e-03,-5.145324394106864929e-02,4.467880353331565857e-02,8.022779971361160278e-02,5.856663361191749573e-02,-2.362901344895362854e-02,4.082502424716949463e-02,1.307697221636772156e-02,9.735518693923950195e-02,-2.505514567019417882e-05,-4.325165413320064545e-03,1.478990316390991211e-01,1.749734133481979370e-01,1.555680632591247559e-01,-8.840585500001907349e-02,-1.551480144262313843e-01,-2.899587750434875488e-01
6.513236463069915771e-02,2.445067279040813446e-03,1.110319420695304871e-02,6.424235180020332336e-03,2.978154085576534271e-02,2.163149602711200714e-02,2.543854415416717529e-01,1.142541542649269104e-01,1.238916814327239990e-01,4.249564930796623230e-02,-1.053591258823871613e-02,-1.185387969017028809e-01,-4.362588822841644287e-01,-5.067462325096130371e-01,-3.469453454017639160e-01,-2.448502928018569946e-01,-4.019581526517868042e-02,-6.011989712715148926e-02,3.447508811950683594e-02,-1.319070695899426937e-03,1.069720983505249023e-01,3.255670145153999329e-02,5.976189300417900085e-02,-6.058351695537567139e-02,-7.663972675800323486e-02,-8.220605552196502686e-02,1.368569862097501755e-02,-2.330630868673324585e-01,-2.868550419807434082e-01,-1.074195504188537598e-01,3.055605664849281311e-02,1.383388414978981018e-03,7.536483556032180786e-02,5.707016214728355408e-03,1.220690384507179260e-01,1.731924829073250294e-03,6.011175736784934998e-02,-1.042746007442474365e-01,-2.258753590285778046e-02,2.231723861768841743e-03,9.975995123386383057e-02,3.472699224948883057e-02,-5.879427492618560791e-02,-3.731848895549774170e-01,-3.043313622474670410e-01,-1.087791547179222107e-01,-1.436179578304290771e-01,-3.287438675761222839e-02,-3.609054535627365112e-02,1.110688894987106323e-01,-6.246790289878845215e-02,1.067693904042243958e-01,1.492352932691574097e-01,5.799267813563346863e-02,1.319505870342254639e-01,8.616147190332412720e-02,1.324184536933898926e-01,2.867986559867858887e-01,1.224332824349403381e-01,9.304141998291015625e-02,1.200293004512786865e-01,4.730543866753578186e-02,2.735183574259281158e-02,7.526523619890213013e-02,-4.632293432950973511e-02,-3.401643410325050354e-02,2.044906467199325562e-02,-1.270677056163549423e-02,-1.568644195795059204e-01,2.567171864211559296e-02,-9.399610012769699097e-02,-1.405619978904724121e-01,9.767284244298934937e-02,6.057737022638320923e-02,3.352274745702743530e-02,9.646388143301010132e-02,5.619271472096443176e-02,1.223269198089838028e-02,-6.881411373615264893e-02,-9.881833940744400024e-02,2.636475116014480591e-02,-6.602653861045837402e-02,2.756782621145248413e-02,1.321393251419067383e-02,-5.620323494076728821e-02,-5.478508025407791138e-02,-1.409529149532318115e-01,-8.820116519927978516e-02,-2.264196425676345825e-02,-6.887482851743698120e-02,6.133002042770385742e-02,2.446703016757965088e-01,2.575575113296508789e-01,-6.105376407504081726e-02,-8.530792593955993652e-02,-1.623978167772293091e-01
-7.877895236015319824e-02,-5.649742484092712402e-02,-8.838191628456115723e-02,-2.267313248012214899e-04,-3.290426451712846756e-03,-8.849855512380599976e-02,2.033635228872299194e-01,5.023588240146636963e-02,2.243994176387786865e-01,7.314532413147389889e-04,4.012173414230346680e-02,5.912331119179725647e-02,-5.097581148147583008e-01,-4.136720001697540283e-01,-6.290652751922607422e-01,5.912245064973831177e-02,-4.077830817550420761e-03,1.048433557152748108e-01,7.829388976097106934e-02,8.252455294132232666e-02,-9.481126442551612854e-03,-2.870314009487628937e-02,1.108617037534713745e-01,8.346510119736194611e-03,7.018073648214340210e-02,-6.062799692153930664e-02,-6.734363734722137451e-02,-7.476799935102462769e-02,9.213840216398239136e-02,-3.822550643235445023e-03,-5.757444351911544800e-02,2.340555191040039062e-02,-4.570041969418525696e-02,-3.976376610808074474e-04,1.667121797800064087e-02,-8.703294396400451660e-02,3.739091008901596069e-02,-4.724824428558349609e-02,3.263679891824722290e-02,-9.726800024509429932e-02,1.727709919214248657e-02,9.566457569599151611e-02,7.300886511802673340e-02,-9.830939583480358124e-03,3.326697275042533875e-03,1.148826405405998230e-01,3.310231119394302368e-02,2.799798920750617981e-02,1.307473424822092056e-02,7.604551315307617188e-02,5.566492304205894470e-02,3.951809555292129517e-02,9.140914678573608398e-02,4.873635992407798767e-02,7.206609845161437988e-02,-6.184850633144378662e-02,6.955572962760925293e-02,1.594445086084306240e-03,6.972181051969528198e-02,5.493995547294616699e-02,-5.899837240576744080e-02,3.549459204077720642e-02,1.139590330421924591e-02,-7.913233339786529541e-02,9.961370378732681274e-02,7.033509016036987305e-02,5.569466203451156616e-02,-2.693762816488742828e-02,9.926709346473217010e-03,-5.091569945216178894e-02,-4.435399174690246582e-02,2.015548385679721832e-02,3.574185445904731750e-02,2.556465379893779755e-02,-1.116274744272232056e-01,1.258745044469833374e-01,4.127286840230226517e-03,1.177556738257408142e-01,8.408134430646896362e-02,3.772913292050361633e-02,1.015526428818702698e-01,7.089473307132720947e-02,7.727759331464767456e-02,-1.550305169075727463e-02,1.077882349491119385e-01,2.750557288527488708e-02,4.874011874198913574e-02,-1.340377703309059143e-02,7.188627868890762329e-02,8.215673267841339111e-02,2.149125747382640839e-02,1.820840686559677124e-01,3.398876264691352844e-02,-3.013971745967864990e-01,-3.525030016899108887e-01,-2.717476189136505127e-01
4.430491104722023010e-02,3.334913402795791626e-02,-7.317812740802764893e-02,1.358903646469116211e-01,-4.003624990582466125e-02,-6.884254515171051025e-02,1.503430753946304321e-01,1.155294179916381836e-01,2.253283374011516571e-02,-5.982322618365287781e-02,-2.491184026002883911e-01,-2.639417946338653564e-01,-5.845797657966613770e-01,-6.518060564994812012e-01,-6.592527627944946289e-01,-2.403799593448638916e-01,-9.379221498966217041e-02,-3.646322339773178101e-02,1.801416091620922089e-02,1.303871870040893555e-01,-4.703887924551963806e-02,1.386495586484670639e-02,-9.094740450382232666e-02,-1.464945077896118164e-01,4.846452176570892334e-02,-6.637823581695556641e-02,5.742100998759269714e-02,-3.309193253517150879e-01,-1.253556907176971436e-01,-8.055028319358825684e-02,2.414672523736953735e-01,1.535406857728958130e-01,1.594229787588119507e-01,1.198957636952400208e-01,1.005625538527965546e-02,-1.972659677267074585e-01,5.968865379691123962e-02,-4.490223154425621033e-02,4.589604213833808899e-02,2.954242937266826630e-02,1.288985460996627808e-01,7.725289463996887207e-02,-2.585695385932922363e-01,-3.498162925243377686e-01,-4.119161069393157959e-01,4.625214636325836182e-02,-7.828383147716522217e-02,-1.205882430076599121e-01,1.741160899400711060e-01,-1.960546895861625671e-02,-6.584329158067703247e-02,2.062184661626815796e-01,1.548002213239669800e-01,3.009914234280586243e-02,1.509223431348800659e-01,1.286985427141189575e-01,-2.154849842190742493e-02,1.875140070915222168e-01,8.275561779737472534e-02,3.856487572193145752e-02,2.078018784523010254e-01,-5.329185351729393005e-02,6.087949872016906738e-02,4.756339266896247864e-02,-8.301346749067306519e-02,-2.036299742758274078e-02,-4.265114292502403259e-02,-6.246795132756233215e-02,-7.348414510488510132e-02,-1.240874081850051880e-01,-2.795543670654296875e-01,-1.907822787761688232e-01,2.248210459947586060e-01,2.925702556967735291e-02,-2.474288083612918854e-02,8.739519864320755005e-02,3.864684328436851501e-02,-3.669315204024314880e-02,9.710872918367385864e-02,4.674216732382774353e-02,1.577799208462238312e-02,1.376469731330871582e-01,-5.067848786711692810e-02,6.642261892557144165e-02,4.519593343138694763e-02,-1.799588091671466827e-02,-1.689818501472473145e-02,1.311592012643814087e-01,5.827882513403892517e-02,-7.597610354423522949e-02,4.480199143290519714e-02,1.244076266884803772e-01,6.911945343017578125e-02,-2.636804617941379547e-02,7.286788523197174072e-02,-1.856224536895751953e-01
-4.413549974560737610e-02,1.070513278245925903e-01,1.495835036039352417e-01,-5.435745790600776672e-02,6.835568696260452271e-02,-1.842140406370162964e-02,1.698268204927444458e-01,2.443724870681762695e-01,2.479299604892730713e-01,8.603024482727050781e-02,4.442686215043067932e-02,8.199635148048400879e-02,-4.756614267826080322e-01,-1.892000436782836914e-01,-1.234331876039505005e-01,3.204491687938570976e-03,-1.980197429656982422e-02,-2.741122432053089142e-02,-1.291946470737457275e-01,-1.170546114444732666e-01,-6.876932084560394287e-02,1.135782822966575623e-01,5.850585177540779114e-02,-5.182050541043281555e-02,-2.117802575230598450e-02,5.062751099467277527e-02,-1.667840033769607544e-02,-5.905753374099731445e-02,-8.301327377557754517e-02,-1.085860058665275574e-01,-3.894736245274543762e-02,-5.822620913386344910e-02,4.004652798175811768e-02,9.424415230751037598e-02,1.090085208415985107e-01,1.733287796378135681e-02,-3.532161191105842590e-02,-4.731909371912479401e-03,-3.645550459623336792e-02,3.593753650784492493e-02,5.470248404890298843e-03,-2.659958321601152420e-03,-7.768084108829498291e-02,2.730559743940830231e-02,1.563866250216960907e-02,9.950856864452362061e-02,-2.086855471134185791e-02,4.323296248912811279e-02,1.658164337277412415e-02,-4.129424691200256348e-02,-3.221283853054046631e-02,1.274497210979461670e-01,3.424791991710662842e-02,2.360735535621643066e-01,9.960397332906723022e-02,1.377383470535278320e-01,2.009405642747879028e-01,1.678373962640762329e-01,2.101039141416549683e-01,2.036004513502120972e-01,-2.910771593451499939e-02,-4.766222462058067322e-02,-7.905388250946998596e-03,7.339724153280258179e-02,1.001887544989585876e-01,9.974632412195205688e-02,-2.626210078597068787e-02,-5.734032485634088516e-03,-6.801937520503997803e-02,7.751259207725524902e-02,-4.937737435102462769e-02,-3.607270494103431702e-02,6.785995513200759888e-02,2.468771487474441528e-02,2.480140700936317444e-02,-2.323771826922893524e-02,-2.426807582378387451e-02,1.242572590708732605e-01,-9.327236562967300415e-02,8.818201720714569092e-02,8.143378794193267822e-02,2.138086967170238495e-02,2.225744910538196564e-02,1.274930685758590698e-01,8.147718757390975952e-02,1.310607939958572388e-01,1.051521226763725281e-01,-5.121377110481262207e-02,6.887589395046234131e-02,7.031120359897613525e-02,9.793659299612045288e-02,2.251886874437332153e-01,1.853041946887969971e-01,-1.658844798803329468e-01,-1.334356218576431274e-01,-1.509470641613006592e-01
5.390311032533645630e-02,-1.003662124276161194e-01,-2.299536578357219696e-02,2.891025543212890625e-01,9.920152276754379272e-02,-9.801994077861309052e-03,2.201150357723236084e-01,7.044414430856704712e-02,2.666423656046390533e-02,2.692033648490905762e-01,2.848593294620513916e-01,1.090783476829528809e-01,2.546399533748626709e-01,8.076679706573486328e-02,-6.271379441022872925e-02,3.555118739604949951e-01,2.996475696563720703e-01,2.372404038906097412e-01,1.283123046159744263e-01,4.950269311666488647e-02,4.603314399719238281e-02,2.104059755802154541e-01,1.270290166139602661e-01,1.420501321554183960e-01,-3.316795080900192261e-02,6.294451653957366943e-02,4.416125640273094177e-02,2.072292119264602661e-01,2.093833237886428833e-01,1.199026182293891907e-01,-2.052407525479793549e-02,1.711604371666908264e-02,-1.257883757352828979e-02,-3.213847987353801727e-03,4.452389478683471680e-02,-7.960868626832962036e-02,9.257493913173675537e-02,1.293040961027145386e-01,-7.203458994626998901e-02,-1.008194312453269958e-02,1.046416256576776505e-02,-1.053431350737810135e-02,-3.659345209598541260e-03,-1.193067803978919983e-01,-4.885340481996536255e-02,7.408204674720764160e-02,5.547452345490455627e-02,1.269748657941818237e-01,-8.075274527072906494e-02,-1.478845328092575073e-01,-1.638563722372055054e-01,2.909856736660003662e-01,1.572123020887374878e-01,2.274527996778488159e-01,1.078394949436187744e-01,-9.486986696720123291e-02,5.549458786845207214e-03,8.475005626678466797e-02,-3.766422346234321594e-02,-7.070071995258331299e-02,-1.412262320518493652e-01,-1.160998046398162842e-01,2.751241438090801239e-02,1.724963076412677765e-02,8.647900819778442383e-02,3.303321823477745056e-02,6.177527084946632385e-02,3.739808499813079834e-02,-5.023979395627975464e-02,-3.223742172122001648e-02,9.985255450010299683e-02,1.383033674210309982e-02,1.953467130661010742e-01,3.610714524984359741e-02,1.350941359996795654e-01,2.567681968212127686e-01,1.396832168102264404e-01,1.099213212728500366e-01,-3.656379505991935730e-02,-4.119680449366569519e-02,-1.481197308748960495e-02,1.758445203304290771e-01,2.689166367053985596e-02,6.809066236019134521e-02,-7.199651002883911133e-02,9.040167927742004395e-02,1.133717522025108337e-01,9.208230674266815186e-02,2.610072493553161621e-03,-8.554878830909729004e-02,2.713164389133453369e-01,1.881891489028930664e-01,1.342075616121292114e-01,-2.123165875673294067e-01,-1.303294152021408081e-01,-5.653195828199386597e-02
1.257790625095367432e-01,8.238563314080238342e-03,-5.000566318631172180e-02,1.797419339418411255e-01,1.246499717235565186e-01,1.367185562849044800e-01,1.903444081544876099e-01,2.378929108381271362e-01,1.556763350963592529e-01,1.889316737651824951e-01,2.282405197620391846e-01,5.050264298915863037e-02,-2.444065213203430176e-01,-3.021147847175598145e-01,-4.845377802848815918e-01,2.248158305883407593e-01,1.174884587526321411e-01,1.042745262384414673e-01,-1.155938953161239624e-04,-9.095049649477005005e-02,-6.911455653607845306e-03,1.608791947364807129e-01,6.628131121397018433e-02,-3.169413423165678978e-03,3.627886623144149780e-02,3.716370835900306702e-02,-2.544972300529479980e-02,-3.590876609086990356e-02,-2.838230505585670471e-02,-3.051181696355342865e-02,6.772283464670181274e-02,1.140739545226097107e-01,2.033277787268161774e-02,8.670654147863388062e-02,9.028774499893188477e-02,-2.713012509047985077e-02,3.956482186913490295e-02,1.040738001465797424e-01,1.005035042762756348e-01,2.216703817248344421e-02,-7.884688675403594971e-02,5.178610980510711670e-02,-9.250727295875549316e-02,2.178411744534969330e-02,-3.953533619642257690e-02,8.732181042432785034e-02,-5.769463628530502319e-02,-1.781474240124225616e-02,6.213166192173957825e-02,8.940432965755462646e-02,-2.535508014261722565e-02,2.590242028236389160e-01,1.204659268260002136e-01,8.528441935777664185e-02,7.254689931869506836e-02,8.011667430400848389e-02,5.677874386310577393e-02,2.019513547420501709e-01,6.532957404851913452e-02,7.985040545463562012e-02,-7.458368688821792603e-02,9.437741339206695557e-02,-1.128520164638757706e-02,-1.942928321659564972e-02,3.483461588621139526e-02,1.672437973320484161e-02,3.667768836021423340e-02,-1.284734252840280533e-02,5.066292360424995422e-02,-1.854412257671356201e-02,-2.551895193755626678e-02,-4.133918508887290955e-02,1.499062627553939819e-01,1.526865661144256592e-01,5.160356312990188599e-02,2.963661849498748779e-01,2.486620098352432251e-01,6.075526773929595947e-02,-8.767593652009963989e-03,-4.816650971770286560e-02,4.220304265618324280e-02,4.896828159689903259e-02,8.400279283523559570e-02,4.587924480438232422e-02,-2.989839017391204834e-02,-3.691093996167182922e-02,-8.302698284387588501e-02,-9.619814809411764145e-04,5.999936163425445557e-02,2.584799006581306458e-02,3.155320584774017334e-01,7.821521908044815063e-02,1.601080000400543213e-01,-2.026758044958114624e-01,-1.051436588168144226e-01,-8.897379040718078613e-02
-3.646549209952354431e-02,1.533029824495315552e-01,5.811190977692604065e-02,1.082898303866386414e-01,6.779122631996870041e-03,9.948198497295379639e-02,2.539426386356353760e-01,1.242587789893150330e-01,1.496891528367996216e-01,1.130183264613151550e-01,-1.365317963063716888e-02,1.305442452430725098e-01,-5.812484025955200195e-01,-3.640813827514648438e-01,-3.551657199859619141e-01,-2.920893207192420959e-02,1.099495068192481995e-01,1.766318455338478088e-03,5.454851314425468445e-02,2.843223512172698975e-02,6.994064152240753174e-02,-7.991161942481994629e-02,3.037226572632789612e-02,-2.889626426622271538e-03,4.568566754460334778e-02,-6.142723560333251953e-02,5.372812226414680481e-02,-3.180868923664093018e-02,-8.625289052724838257e-02,-1.613817811012268066e-01,2.967857569456100464e-02,-7.934539020061492920e-02,5.437207967042922974e-02,2.960198372602462769e-02,4.244330897927284241e-02,5.851794965565204620e-03,1.194673962891101837e-02,-3.407151997089385986e-02,-7.199139147996902466e-02,4.870563000440597534e-02,-6.280684471130371094e-02,7.049427926540374756e-02,-2.455312013626098633e-02,6.018065661191940308e-02,7.055155932903289795e-02,-5.626431480050086975e-02,9.709101170301437378e-02,1.793220452964305878e-02,-8.319083601236343384e-02,4.430088400840759277e-02,7.118749618530273438e-02,1.778475493192672729e-01,-1.209181826561689377e-02,2.123523801565170288e-01,1.614855378866195679e-01,1.907154619693756104e-01,1.616761535406112671e-01,8.844578266143798828e-02,2.325215488672256470e-01,2.417465895414352417e-01,-4.471983015537261963e-02,-2.582534216344356537e-02,8.402729034423828125e-02,8.896820247173309326e-02,8.333928883075714111e-02,9.920414537191390991e-02,-6.456077843904495239e-02,-2.588418498635292053e-02,-4.416218772530555725e-02,5.392171815037727356e-02,3.889342024922370911e-02,-6.443598121404647827e-02,-1.168706919997930527e-02,-8.180407434701919556e-02,-4.736356437206268311e-02,1.796440929174423218e-01,3.444220125675201416e-02,1.299621760845184326e-01,-2.272383123636245728e-02,-2.066429145634174347e-02,-2.244829229312017560e-04,1.120214983820915222e-01,2.396522462368011475e-02,1.311126649379730225e-01,8.585724979639053345e-02,9.841281175613403320e-02,-6.760421395301818848e-02,-3.124707192182540894e-02,-8.087188005447387695e-02,-1.199680473655462265e-02,1.238105595111846924e-01,1.441514343023300171e-01,2.534618079662322998e-01,-1.064385622739791870e-01,-2.225584685802459717e-01,-2.086147665977478027e-01
1.082312613725662231e-01,3.851440176367759705e-02,9.009899944067001343e-02,-8.245850354433059692e-02,-4.415985941886901855e-02,1.512327603995800018e-02,6.226031109690666199e-02,2.022090703248977661e-01,2.099356651306152344e-01,-6.810095906257629395e-02,-1.817803829908370972e-02,1.454466301947832108e-02,-5.826321244239807129e-01,-6.669943928718566895e-01,-4.139790832996368408e-01,-1.838756799697875977e-01,-5.291851982474327087e-02,2.168587781488895416e-02,5.387414991855621338e-02,3.102992847561836243e-02,-3.109963238239288330e-02,8.134599030017852783e-02,-8.694154024124145508e-02,4.500548914074897766e-02,-2.727471478283405304e-02,7.630548905581235886e-03,-7.882592827081680298e-02,-1.481173336505889893e-01,-1.150653660297393799e-01,2.646721526980400085e-02,2.899963641539216042e-03,8.982551842927932739e-02,-1.899080537259578705e-02,-7.910199929028749466e-04,3.010591678321361542e-02,1.033233404159545898e-01,2.071712166070938110e-02,1.152413040399551392e-01,7.722803950309753418e-02,7.059810310602188110e-02,1.098706126213073730e-01,1.047230809926986694e-01,2.773821912705898285e-02,-1.835535280406475067e-02,3.549484070390462875e-03,4.455309361219406128e-02,-9.295525029301643372e-03,5.846507102251052856e-02,-1.974121853709220886e-02,9.293674677610397339e-02,2.029183320701122284e-02,3.232744336128234863e-02,7.358065247535705566e-02,7.385269552469253540e-02,7.636823505163192749e-02,4.373271483927965164e-03,6.832028180360794067e-02,7.222018390893936157e-02,5.207449570298194885e-02,1.321831643581390381e-01,1.666154712438583374e-02,5.352055281400680542e-02,1.024930849671363831e-01,-5.528397858142852783e-02,6.081244722008705139e-02,1.984791830182075500e-03,-3.962818905711174011e-02,-4.433919489383697510e-02,2.806769683957099915e-02,1.831512153148651123e-02,1.576718292199075222e-03,-3.570120781660079956e-02,3.632158041000366211e-02,-1.963841728866100311e-02,-8.704561740159988403e-02,-5.390934180468320847e-03,2.333984337747097015e-02,1.280179712921380997e-02,-5.660079047083854675e-02,-8.278630673885345459e-02,1.004957109689712524e-01,-1.433013975620269775e-01,1.150022149085998535e-01,-1.481946744024753571e-02,7.191838230937719345e-03,-2.463629934936761856e-03,-3.238580748438835144e-02,5.599894374608993530e-02,6.084324792027473450e-02,-5.867360532283782959e-02,8.556396514177322388e-02,1.980526894330978394e-01,1.756658107042312622e-01,-8.186853677034378052e-02,-1.081552356481552124e-01,-2.318677753210067749e-01
1.046359390020370483e-01,1.528567522764205933e-01,2.547783404588699341e-02,5.115049332380294800e-02,2.007390372455120087e-02,-3.731886623427271843e-03,2.787338495254516602e-01,1.704967021942138672e-01,1.759501397609710693e-01,-2.304781042039394379e-02,-1.598120480775833130e-01,-8.640190213918685913e-02,-5.367593169212341309e-01,-5.523331761360168457e-01,-4.104760885238647461e-01,-3.166792690753936768e-01,-7.408693432807922363e-02,-1.322754323482513428e-01,1.553951203823089600e-01,8.818733692169189453e-02,-4.532261192798614502e-02,9.125699847936630249e-02,-6.975093390792608261e-03,-1.561471223831176758e-01,1.631615757942199707e-01,4.516831412911415100e-02,1.289281062781810760e-02,-4.769819676876068115e-01,-4.415293633937835693e-01,-4.026456773281097412e-01,2.230869084596633911e-01,1.551619619131088257e-01,8.914688229560852051e-02,2.147881686687469482e-01,9.985221177339553833e-02,-1.349172592163085938e-01,1.376203596591949463e-01,7.945586927235126495e-03,1.110504642128944397e-01,1.508710235357284546e-01,-3.297513723373413086e-02,-1.997412741184234619e-02,-9.001988917589187622e-02,-4.156046211719512939e-01,-6.996380686759948730e-01,-5.370437353849411011e-02,-6.103885173797607422e-02,-1.082848757505416870e-01,1.402580589056015015e-01,5.137687176465988159e-02,-1.855185814201831818e-02,1.538801342248916626e-01,1.314169913530349731e-01,1.268147379159927368e-01,1.810721755027770996e-01,1.967228055000305176e-01,6.581938266754150391e-02,1.905186325311660767e-01,2.492911070585250854e-01,6.918455660343170166e-02,2.250646501779556274e-01,1.203845143318176270e-01,1.766775548458099365e-02,4.468104615807533264e-02,2.632421441376209259e-02,-1.805532723665237427e-01,-1.433539390563964844e-01,-3.341255336999893188e-02,-2.965964078903198242e-01,-7.982193678617477417e-02,-1.584522277116775513e-01,-2.685853540897369385e-01,1.931596547365188599e-01,6.639578193426132202e-02,6.609035283327102661e-02,1.579003483057022095e-01,1.877690702676773071e-01,1.912438571453094482e-01,4.194203019142150879e-02,-6.290180608630180359e-04,7.652695477008819580e-02,1.138740219175815582e-03,1.259821057319641113e-01,2.742057293653488159e-02,1.726390868425369263e-01,-1.077923625707626343e-01,-6.670773029327392578e-02,5.607479717582464218e-03,9.677172452211380005e-02,1.900790818035602570e-02,2.274067103862762451e-01,5.300926789641380310e-02,2.536525428295135498e-01,-1.508013159036636353e-02,-8.515708148479461670e-02,-1.720260530710220337e-01
6.858751177787780762e-02,-1.064671277999877930e-01,-2.441368252038955688e-01,1.503677368164062500e-01,1.364096850156784058e-01,1.094058826565742493e-01,3.288727700710296631e-01,1.533823311328887939e-01,-1.938865147531032562e-02,2.069045305252075195e-01,2.766210138797760010e-01,3.672520071268081665e-02,7.001904398202896118e-02,-1.954463720321655273e-01,-2.364113181829452515e-01,3.787451088428497314e-01,2.388919740915298462e-01,2.058719545602798462e-01,5.315914750099182129e-02,3.309704363346099854e-02,-4.070435836911201477e-02,1.465138345956802368e-01,1.433875113725662231e-01,1.031260266900062561e-01,9.495085477828979492e-02,-1.140276938676834106e-01,-1.452440172433853149e-01,1.715965569019317627e-01,1.753552705049514771e-01,2.465975880622863770e-01,1.471999138593673706e-01,5.315342545509338379e-02,-8.643797039985656738e-02,1.594522781670093536e-02,6.171407178044319153e-02,-2.141710184514522552e-02,2.818645723164081573e-02,4.525870457291603088e-02,-1.186301261186599731e-01,-5.753590166568756104e-02,-1.838193088769912720e-02,-2.099340558052062988e-01,-7.866237312555313110e-03,-1.212423890829086304e-01,7.046949118375778198e-02,1.347035616636276245e-01,1.236288174986839294e-01,4.203736782073974609e-02,-1.341413520276546478e-02,-9.868456423282623291e-02,-1.532653719186782837e-01,8.490588515996932983e-02,1.960350126028060913e-01,1.718411408364772797e-02,8.907406032085418701e-02,-1.107720658183097839e-01,-9.257998317480087280e-02,-2.903523854911327362e-02,-2.074877172708511353e-01,-2.248337417840957642e-01,-1.216462254524230957e-01,-5.078799650073051453e-02,-1.415993422269821167e-01,1.481277942657470703e-01,-4.380154609680175781e-02,-3.481370396912097931e-03,6.192194670438766479e-02,-8.176291733980178833e-02,3.464094176888465881e-02,9.527801722288131714e-02,-8.670366555452346802e-02,-6.168147549033164978e-02,1.730587929487228394e-01,1.919260323047637939e-01,9.651856124401092529e-02,1.669565588235855103e-01,5.429927632212638855e-02,-5.900376662611961365e-02,-4.538477212190628052e-02,-2.079698629677295685e-02,-3.680595383048057556e-02,2.059917896986007690e-01,-2.768257260322570801e-02,-1.360767483711242676e-01,-7.248667627573013306e-02,-6.979410350322723389e-02,7.189721614122390747e-02,4.884979501366615295e-02,7.678346242755651474e-03,-4.561641067266464233e-02,1.156293973326683044e-01,6.411647796630859375e-02,6.473835557699203491e-02,-1.211437955498695374e-01,-4.216326028108596802e-02,-9.744985401630401611e-02
-8.740237355232238770e-02,-1.288678199052810669e-01,-1.854649977758526802e-03,-9.641677141189575195e-02,-1.185113377869129181e-02,-9.483736008405685425e-02,1.512884795665740967e-01,5.912172794342041016e-02,-4.243855550885200500e-02,-8.443915843963623047e-02,-3.817853704094886780e-02,-1.204395070672035217e-01,-1.491751074790954590e-01,-3.196692764759063721e-01,-4.437962174415588379e-01,9.838809072971343994e-02,2.545710839331150055e-02,-1.306615583598613739e-02,-4.869939014315605164e-02,6.868392229080200195e-02,-1.746999658644199371e-02,4.883922636508941650e-02,-4.374015331268310547e-02,-9.120810776948928833e-02,1.281153261661529541e-01,1.267673522233963013e-01,1.552439033985137939e-01,1.932517737150192261e-01,9.042780846357345581e-03,1.861964352428913116e-02,-2.235929667949676514e-02,1.124607026576995850e-01,8.552674949169158936e-02,1.013748869299888611e-01,-5.162918940186500549e-02,-2.563314698636531830e-02,1.458934545516967773e-01,-4.650410264730453491e-02,-4.350471869111061096e-02,9.500656276941299438e-02,-5.318733677268028259e-02,2.653882838785648346e-03,1.148447319865226746e-01,1.759832948446273804e-01,9.434165805578231812e-02,-2.938192524015903473e-02,1.100216582417488098e-01,1.406493335962295532e-01,-3.740445896983146667e-02,2.895438112318515778e-02,-5.090324953198432922e-02,3.867957741022109985e-02,1.205140873789787292e-01,1.111670807003974915e-01,3.840378299355506897e-02,-1.347435712814331055e-01,-6.555555015802383423e-02,-8.540099859237670898e-02,-1.767411679029464722e-01,-1.765986680984497070e-01,-6.128725036978721619e-02,9.732301533222198486e-02,-7.768746465444564819e-02,-4.137253761291503906e-02,1.057418733835220337e-01,-2.890201285481452942e-02,1.472852081060409546e-01,4.100122302770614624e-02,8.770447969436645508e-02,2.370685338973999023e-02,1.582300215959548950e-01,1.514087915420532227e-01,-3.052014485001564026e-02,-8.106971532106399536e-02,-1.806145310401916504e-01,-7.718589156866073608e-02,-1.048759296536445618e-01,-8.552590012550354004e-02,-1.814956963062286377e-02,6.946416199207305908e-02,1.488314289599657059e-02,2.805686369538307190e-02,-7.294281572103500366e-02,2.173351123929023743e-02,-4.710610210895538330e-02,7.149909436702728271e-02,9.166337549686431885e-02,5.160763487219810486e-02,1.026166528463363647e-01,4.615627974271774292e-02,2.496337145566940308e-02,-4.938039928674697876e-02,-1.029055565595626831e-01,1.570906676352024078e-02,8.185552433133125305e-03,-1.304393410682678223e-01
3.228355944156646729e-02,-1.608066633343696594e-02,1.514622271060943604e-01,-5.346373468637466431e-02,1.134102493524551392e-01,1.357458531856536865e-01,2.431292682886123657e-01,2.755452096462249756e-01,2.022540122270584106e-01,3.484743833541870117e-02,-2.090805396437644958e-02,7.627905905246734619e-02,-3.707087635993957520e-01,-1.059585586190223694e-01,-1.526981294155120850e-01,8.002012223005294800e-02,2.363005727529525757e-01,1.402187347412109375e-01,1.577227413654327393e-01,3.821529075503349304e-02,5.596689879894256592e-02,-4.569675028324127197e-02,6.790418922901153564e-02,-6.717138737440109253e-02,7.049155980348587036e-02,-6.089664623141288757e-02,9.851719439029693604e-02,-1.431866884231567383e-01,-9.607912041246891022e-03,-3.515718877315521240e-01,6.708664447069168091e-02,9.882854670286178589e-02,1.277650333940982819e-02,7.085906714200973511e-02,-2.271047793328762054e-02,-7.417219877243041992e-02,1.432751119136810303e-01,1.135762110352516174e-01,-5.871418491005897522e-02,6.801707297563552856e-02,1.828791946172714233e-01,5.336496233940124512e-02,-1.947921812534332275e-01,-3.289347589015960693e-01,-5.553555488586425781e-01,-1.935908012092113495e-02,5.668979138135910034e-02,-3.566738590598106384e-02,1.690094731748104095e-02,-2.243369817733764648e-02,2.918617799878120422e-02,1.923032701015472412e-01,6.627328693866729736e-02,1.273278519511222839e-02,1.081568077206611633e-01,1.086887940764427185e-01,8.130788803100585938e-02,1.035917401313781738e-01,1.574297100305557251e-01,2.424122244119644165e-01,-2.225198969244956970e-02,-4.301550611853599548e-02,7.072602957487106323e-02,6.396490335464477539e-02,-1.361783742904663086e-01,-1.337394565343856812e-01,-1.198011189699172974e-01,-2.075920403003692627e-01,-2.511183619499206543e-01,-3.172754496335983276e-02,-3.306150063872337341e-02,-1.912033110857009888e-01,-4.213267937302589417e-02,-1.144717484712600708e-01,6.537691503763198853e-02,2.145411968231201172e-01,1.972173154354095459e-01,1.063429638743400574e-01,1.504094339907169342e-02,6.818818300962448120e-02,-4.270982742309570312e-02,1.625788062810897827e-01,2.277176380157470703e-01,1.267698109149932861e-01,3.927652165293693542e-02,2.229459024965763092e-02,-4.184856638312339783e-02,1.378301531076431274e-01,1.057987734675407410e-01,-4.121212288737297058e-02,1.386537849903106689e-01,1.002751812338829041e-01,6.321707367897033691e-02,1.108927205204963684e-01,-1.712030358612537384e-02,-1.969688087701797485e-01
-1.468205153942108154e-01,6.899057328701019287e-02,1.518521606922149658e-01,-1.375457048416137695e-01,-1.160023957490921021e-01,1.416496350429952145e-03,-6.385168433189392090e-02,2.037876993417739868e-01,3.105228841304779053e-01,4.231344442814588547e-03,1.664710491895675659e-01,1.673962324857711792e-01,-2.305234372615814209e-01,-3.020301163196563721e-01,6.920536607503890991e-02,-6.632277369499206543e-02,1.500909775495529175e-01,2.729609906673431396e-01,-2.517260797321796417e-02,3.972527384757995605e-02,5.355896428227424622e-02,1.575228385627269745e-02,7.613792270421981812e-02,-2.301562111824750900e-03,-5.135964229702949524e-02,-3.593226149678230286e-02,-8.274145424365997314e-02,1.104784458875656128e-01,-7.720977999269962311e-03,-4.047075286507606506e-02,1.390066891908645630e-01,9.902751445770263672e-02,2.008614130318164825e-02,-1.515542566776275635e-01,-3.198489546775817871e-02,4.360242560505867004e-02,1.993778795003890991e-01,1.072365716099739075e-01,1.896840929985046387e-01,-4.596140235662460327e-02,1.860951632261276245e-01,3.567358106374740601e-02,8.420540019869804382e-03,1.744966804981231689e-01,1.198453754186630249e-01,2.339029125869274139e-02,-8.909033238887786865e-02,1.038783565163612366e-01,5.786723643541336060e-02,-4.452841822057962418e-03,8.078339695930480957e-02,3.461662679910659790e-02,2.831226587295532227e-02,1.136778593063354492e-01,4.544122889637947083e-02,-1.123281195759773254e-03,1.857577413320541382e-01,8.973344229161739349e-03,9.881845116615295410e-02,1.845157891511917114e-01,-1.409612745046615601e-01,-1.755362898111343384e-01,-4.757795855402946472e-02,-3.584608435630798340e-02,-1.258746907114982605e-02,-2.475369907915592194e-02,-1.193425282835960388e-01,-1.133262962102890015e-01,1.340511739253997803e-01,-1.773732155561447144e-01,6.485462933778762817e-02,1.501636058092117310e-01,-3.866238892078399658e-02,-1.579078882932662964e-01,-1.553967222571372986e-02,-2.384490892291069031e-02,1.151804625988006592e-01,-5.631159059703350067e-03,-9.393138438463211060e-02,-6.812395155429840088e-02,8.323907852172851562e-02,1.336299031972885132e-01,2.200991660356521606e-01,2.908141911029815674e-01,-6.703456491231918335e-02,-2.417095005512237549e-02,-5.454543232917785645e-02,7.307120412588119507e-02,7.051400840282440186e-02,1.047693639993667603e-01,1.731961220502853394e-02,4.184747487306594849e-02,7.020949572324752808e-02,-2.913621962070465088e-01,-3.736270070075988770e-01,-4.789101481437683105e-01
-1.034638211131095886e-01,7.299152761697769165e-02,-5.720941349864006042e-02,1.747578755021095276e-02,5.582386627793312073e-02,2.861785702407360077e-02,6.973619014024734497e-02,7.217990607023239136e-02,4.316371306777000427e-02,9.915200062096118927e-03,5.586493015289306641e-02,-5.343892052769660950e-02,-5.498278141021728516e-02,4.872237145900726318e-02,2.677313983440399170e-02,-1.258281990885734558e-02,-9.586654603481292725e-02,2.070023678243160248e-02,5.126304924488067627e-02,-2.631157264113426208e-02,9.500052779912948608e-03,3.253255784511566162e-02,-1.139426678419113159e-01,-3.030751459300518036e-02,-5.197573080658912659e-02,-6.483826786279678345e-02,4.825961589813232422e-02,9.181825071573257446e-02,2.160785486921668053e-03,4.637042805552482605e-02,-8.705373853445053101e-02,4.783492535352706909e-03,-2.723457291722297668e-02,-7.671551406383514404e-02,1.082200929522514343e-02,2.159141004085540771e-02,-1.664477214217185974e-02,3.133291006088256836e-02,3.606921806931495667e-02,7.824048399925231934e-02,-8.683130145072937012e-03,-1.086068246513605118e-02,-1.809987984597682953e-02,6.589281838387250900e-04,-9.670817852020263672e-02,-2.722125872969627380e-02,-1.013609468936920166e-01,-8.559812605381011963e-02,-1.000390127301216125e-01,6.228526681661605835e-02,-7.194947451353073120e-02,-1.901283301413059235e-02,-1.488876529037952423e-03,7.645708322525024414e-02,3.231188654899597168e-02,-8.690080791711807251e-02,8.596267551183700562e-02,-1.109905242919921875e-01,-2.210284117609262466e-03,7.528488337993621826e-02,7.423528283834457397e-02,-3.778248280286788940e-02,-8.189369738101959229e-02,3.109879978001117706e-02,6.491906195878982544e-02,-6.764688342809677124e-02,-2.998633310198783875e-02,-7.584086060523986816e-02,2.495254017412662506e-02,7.749231997877359390e-03,3.652444109320640564e-02,-4.841962084174156189e-02,-1.140482947230339050e-01,-5.864558368921279907e-02,-9.383559226989746094e-02,-3.222533315420150757e-02,2.916966006159782410e-02,-1.005811393260955811e-01,-4.763271659612655640e-03,-9.982988238334655762e-02,-7.231341302394866943e-02,-8.558650314807891846e-02,-4.986937716603279114e-02,-7.815834134817123413e-02,1.101684756577014923e-03,4.793114215135574341e-02,6.458716839551925659e-02,1.896526850759983063e-02,-1.390956714749336243e-02,-3.140566870570182800e-02,5.650041997432708740e-02,-6.988038122653961182e-02,6.078923493623733521e-02,-1.141529306769371033e-01,-8.414851874113082886e-02,2.706701494753360748e-02
8.995880372822284698e-03,4.882778972387313843e-02,1.379922330379486084e-01,1.461994647979736328e-01,1.738930344581604004e-01,6.695987191051244736e-03,1.481443494558334351e-01,1.531789451837539673e-01,1.405428051948547363e-01,9.222859889268875122e-02,9.625837206840515137e-02,1.685133427381515503e-01,-4.365599155426025391e-01,-4.291191697120666504e-01,-3.912033140659332275e-01,1.892360299825668335e-01,1.295447200536727905e-01,1.416790299117565155e-02,1.697335951030254364e-02,-7.890347391366958618e-02,-7.700803875923156738e-02,1.604650765657424927e-01,1.282494366168975830e-01,-4.374335706233978271e-02,8.604150265455245972e-02,1.609600335359573364e-02,1.040599402040243149e-02,1.337690353393554688e-01,9.533181786537170410e-03,-7.845471054315567017e-02,2.734539657831192017e-02,-5.766902491450309753e-02,-4.417924955487251282e-02,-4.580325260758399963e-02,9.154202044010162354e-02,3.741655126214027405e-02,1.952861621975898743e-02,-8.562767878174781799e-03,1.985702291131019592e-02,-6.949038058519363403e-02,2.366438321769237518e-02,-8.553736656904220581e-02,-3.084678575396537781e-02,-4.959133639931678772e-02,-1.111059784889221191e-01,1.203861609101295471e-01,4.865653812885284424e-02,4.912957549095153809e-02,-9.532360732555389404e-02,2.953610848635435104e-03,2.497434802353382111e-02,1.575780659914016724e-01,3.804989159107208252e-02,8.958195894956588745e-02,-1.981523120775818825e-03,1.175762414932250977e-01,1.394845843315124512e-01,1.287844777107238770e-01,1.223784014582633972e-01,1.386587321758270264e-01,7.366661727428436279e-02,1.061219070106744766e-02,1.920002885162830353e-02,4.953674972057342529e-02,-4.407567530870437622e-02,3.361007198691368103e-02,1.262292545288801193e-02,-9.765247255563735962e-02,-5.307088792324066162e-02,-7.532853633165359497e-02,-7.638791203498840332e-02,4.795409739017486572e-02,1.415998488664627075e-01,2.023349702358245850e-02,6.469549983739852905e-02,1.330367475748062134e-01,1.228840202093124390e-01,4.324411600828170776e-02,-5.308135226368904114e-02,-4.293475300073623657e-02,1.011494770646095276e-01,1.031064614653587341e-01,-1.590245403349399567e-02,4.551979526877403259e-02,-9.693506360054016113e-02,1.031577028334140778e-02,8.036905527114868164e-02,2.012285962700843811e-02,2.551464922726154327e-02,-9.728936851024627686e-02,2.231868803501129150e-01,1.911325603723526001e-01,7.311667501926422119e-02,-2.888504862785339355e-01,-1.570194810628890991e-01,-2.000374197959899902e-01
3.174265846610069275e-02,-2.072957158088684082e-01,-1.381662040948867798e-01,5.253686755895614624e-02,1.507184654474258423e-02,-2.225996181368827820e-02,-3.423254564404487610e-02,-2.270185761153697968e-02,-2.062182128429412842e-01,1.445449590682983398e-01,1.455448847264051437e-02,-5.478359386324882507e-02,4.290729165077209473e-01,3.777173161506652832e-01,1.464855372905731201e-01,2.399468123912811279e-01,2.291269004344940186e-01,1.017112284898757935e-02,8.932284265756607056e-02,1.237587109208106995e-01,7.983098179101943970e-02,1.584368497133255005e-01,1.898530721664428711e-01,2.480481564998626709e-02,1.310493648052215576e-01,1.571696251630783081e-01,8.706637471914291382e-02,3.223429620265960693e-01,3.162360787391662598e-01,2.991462051868438721e-01,1.953022181987762451e-02,1.297537237405776978e-01,-7.335544377565383911e-02,1.429141461849212646e-01,1.291253864765167236e-01,1.710386276245117188e-01,-1.254883036017417908e-02,3.201179951429367065e-02,-8.307820558547973633e-02,1.146895289421081543e-01,6.706329435110092163e-02,-7.452005892992019653e-02,1.486883461475372314e-01,1.646998971700668335e-01,1.959329396486282349e-01,2.566748857498168945e-01,1.839176267385482788e-01,1.348624527454376221e-01,9.729611873626708984e-02,-5.062899738550186157e-02,8.705803751945495605e-02,7.091688923537731171e-03,3.893659263849258423e-02,-3.801931813359260559e-02,-7.689202576875686646e-02,-7.387497276067733765e-02,-2.589764893054962158e-01,-1.134778559207916260e-01,-1.920649707317352295e-01,-3.700143098831176758e-01,6.963071227073669434e-02,-5.047333985567092896e-02,-1.640613377094268799e-02,1.871573925018310547e-01,1.620964407920837402e-01,-8.998231962323188782e-03,2.046289891004562378e-01,1.718669235706329346e-01,2.645212709903717041e-01,3.861800953745841980e-02,1.049280688166618347e-01,6.745526194572448730e-02,-2.520507760345935822e-02,3.072517365217208862e-02,-2.019059360027313232e-01,1.344441026449203491e-01,-5.332375690340995789e-02,-6.694418936967849731e-02,-5.983307585120201111e-02,7.559469086118042469e-04,-7.210031151771545410e-02,1.650783121585845947e-01,6.936271488666534424e-02,1.288358401507139206e-02,7.758736610412597656e-02,1.685041040182113647e-01,1.305253431200981140e-02,1.375105082988739014e-01,7.195530831813812256e-02,-1.984730362892150879e-02,-1.377312541007995605e-01,-2.017275094985961914e-01,-1.560549437999725342e-01,1.327309608459472656e-01,1.664755195379257202e-01,2.344281077384948730e-01
-1.380239799618721008e-02,6.693128496408462524e-02,1.331209391355514526e-02,2.989907935261726379e-02,-3.059844113886356354e-02,1.818833639845252037e-03,1.797544956207275391e-01,1.190760284662246704e-01,2.472158968448638916e-01,3.054424375295639038e-02,-8.247227966785430908e-02,-3.246716782450675964e-02,-5.878059267997741699e-01,-6.384755969047546387e-01,-4.778300225734710693e-01,-1.658167243003845215e-01,-1.178599819540977478e-01,7.510369177907705307e-04,-1.328252814710140228e-02,-4.461076110601425171e-03,2.950560860335826874e-02,8.865679800510406494e-02,-6.965381652116775513e-02,-6.084740534424781799e-02,-3.927602618932723999e-02,2.095528505742549896e-02,1.415024860762059689e-03,-2.269989848136901855e-01,-1.328055113554000854e-01,-1.966191679239273071e-01,1.397236287593841553e-01,7.842920720577239990e-02,4.688725993037223816e-02,-1.128862146288156509e-02,5.125144496560096741e-02,5.698943883180618286e-02,-1.034556189551949501e-04,5.732851848006248474e-02,1.508173644542694092e-01,-1.432207506150007248e-02,-1.520770695060491562e-02,4.939137771725654602e-02,8.301290869712829590e-02,-8.531890809535980225e-02,-2.420527786016464233e-01,-6.845680624246597290e-02,-1.279147155582904816e-02,2.565859258174896240e-02,1.561933755874633789e-01,3.872919827699661255e-02,5.244318023324012756e-02,4.517331719398498535e-02,2.093174457550048828e-01,2.853728830814361572e-01,1.175373867154121399e-01,4.891465231776237488e-02,1.690866947174072266e-01,-3.933360800147056580e-02,1.024530082941055298e-01,6.176308542490005493e-02,-5.662276223301887512e-02,-2.987054362893104553e-02,-7.854779064655303955e-02,4.384404420852661133e-02,-1.771377399563789368e-02,1.012410968542098999e-02,1.188649237155914307e-02,7.718232274055480957e-02,-2.154344134032726288e-02,1.085568815469741821e-01,6.565175950527191162e-02,-1.490585356950759888e-01,-8.543194830417633057e-02,3.921601176261901855e-02,1.208033040165901184e-01,-1.242977529764175415e-01,-5.913171451538801193e-03,-3.437649831175804138e-02,9.606202691793441772e-02,8.477257937192916870e-02,7.426822930574417114e-02,-4.040414839982986450e-02,-1.410939823836088181e-02,1.686100363731384277e-01,2.197311259806156158e-02,4.127410426735877991e-02,-5.466769635677337646e-02,-4.549450427293777466e-02,-4.854385554790496826e-02,2.591970190405845642e-02,1.540050953626632690e-01,1.074161380529403687e-01,1.947897523641586304e-01,-7.947636768221855164e-03,-1.764839738607406616e-01,-1.066136360168457031e-01
-1.496120095252990723e-01,-4.173954203724861145e-02,-1.148973703384399414e-01,-1.503587365150451660e-01,-2.311392314732074738e-02,9.760379046201705933e-02,2.072538286447525024e-01,1.635994464159011841e-01,2.331864237785339355e-01,3.793408721685409546e-02,1.580652743577957153e-01,1.675441414117813110e-01,-4.561975002288818359e-01,-4.018653035163879395e-01,-3.203629553318023682e-01,1.568168848752975464e-01,8.863405138254165649e-02,6.428384780883789062e-02,4.514924809336662292e-02,2.703675767406821251e-03,-1.954748295247554779e-02,-8.740630000829696655e-02,1.012960746884346008e-01,-6.604235619306564331e-02,3.944471105933189392e-02,-1.020156964659690857e-02,1.101230178028345108e-02,1.289792656898498535e-01,3.349747508764266968e-02,-1.832300983369350433e-02,6.602049618959426880e-02,-5.054549500346183777e-02,5.690116435289382935e-02,-5.770695582032203674e-02,-5.912714824080467224e-02,4.306060075759887695e-02,4.606272280216217041e-02,-2.916238270699977875e-02,1.453589200973510742e-01,-3.793276101350784302e-02,1.006090566515922546e-01,-2.543514408171176910e-02,1.235606893897056580e-01,5.326970666646957397e-02,-2.943800576031208038e-02,4.748130962252616882e-02,1.523140538483858109e-02,-4.439301043748855591e-02,2.040328271687030792e-02,2.829578891396522522e-02,-5.852147936820983887e-02,1.980514377355575562e-01,1.419155895709991455e-01,6.433735042810440063e-02,-5.041910335421562195e-02,8.798230439424514771e-02,5.465073511004447937e-03,1.720349304378032684e-02,-1.119119599461555481e-01,2.513902820646762848e-02,-1.342230290174484253e-01,-1.208975818008184433e-02,3.374061733484268188e-02,2.826353907585144043e-02,-4.608493298292160034e-02,-1.098877862095832825e-01,-4.199841246008872986e-02,-5.468809977173805237e-02,9.623476862907409668e-02,-5.988153070211410522e-02,4.467773437500000000e-02,8.511515706777572632e-02,-4.109129309654235840e-02,-1.350474655628204346e-01,-5.793977156281471252e-02,4.930839641019701958e-04,1.499421298503875732e-01,6.540085375308990479e-02,-5.382413044571876526e-03,9.077867120504379272e-02,2.413407154381275177e-02,6.744932383298873901e-02,1.367207709699869156e-02,1.179364249110221863e-01,1.612902060151100159e-02,-1.068072579801082611e-02,3.550172224640846252e-02,-8.707787096500396729e-02,1.566830463707447052e-02,5.036810413002967834e-02,2.306005731225013733e-02,1.005884259939193726e-01,1.968105137348175049e-01,-2.566822171211242676e-01,-2.916972041130065918e-01,-2.980393767356872559e-01
-8.506076782941818237e-02,3.115619532763957977e-02,-4.672601446509361267e-02,-1.088276132941246033e-01,-3.920427989214658737e-03,-1.046651154756546021e-01,7.059773802757263184e-02,1.243397146463394165e-01,1.129959076642990112e-01,4.561312496662139893e-02,-4.918556287884712219e-02,1.783652976155281067e-02,-5.946944355964660645e-01,-4.526690840721130371e-01,-4.488237202167510986e-01,-7.036083191633224487e-02,1.124206408858299255e-01,8.392464369535446167e-02,1.249408125877380371e-01,6.236142292618751526e-02,-5.757494270801544189e-02,7.755777984857559204e-02,-1.763676479458808899e-02,-3.414297103881835938e-02,7.788552343845367432e-02,1.274475604295730591e-01,6.907336413860321045e-02,-6.424272060394287109e-02,3.814082965254783630e-02,1.234233528375625610e-01,-1.370237674564123154e-02,-2.049717120826244354e-02,-4.789828509092330933e-02,-6.773306429386138916e-02,-7.937061786651611328e-02,-2.445689402520656586e-03,1.093159019947052002e-01,1.494863331317901611e-01,1.331775188446044922e-01,5.310411751270294189e-02,1.041292846202850342e-01,1.216096356511116028e-01,-3.897174447774887085e-02,1.085638031363487244e-01,-1.276457495987415314e-02,7.774308323860168457e-02,-1.811032369732856750e-02,5.515033379197120667e-02,1.249295286834239960e-02,5.076882615685462952e-02,3.446003049612045288e-02,3.571039065718650818e-02,1.387256085872650146e-01,1.811982095241546631e-01,-4.437843337655067444e-02,-6.186870858073234558e-02,-1.625698246061801910e-02,-5.461226031184196472e-02,-3.318553790450096130e-02,3.839764744043350220e-02,-1.868464052677154541e-02,-5.411124974489212036e-02,6.246025487780570984e-02,-1.182617899030447006e-02,-7.978551834821701050e-02,-4.640544950962066650e-02,-4.101787507534027100e-02,-1.082757953554391861e-02,-7.118004560470581055e-02,-9.831186383962631226e-03,-7.303853332996368408e-02,8.913280814886093140e-02,-2.911341004073619843e-02,-1.563455313444137573e-01,-1.447288095951080322e-01,-8.743659406900405884e-02,3.646277263760566711e-02,5.007093772292137146e-02,-5.266628041863441467e-02,6.164092570543289185e-02,4.229531064629554749e-02,-9.371496737003326416e-02,1.736053265631198883e-02,1.092205196619033813e-02,7.060658186674118042e-03,9.043546766042709351e-02,4.524797946214675903e-02,-4.730584472417831421e-02,8.782193064689636230e-02,-6.293658167123794556e-02,9.499096870422363281e-02,1.651447415351867676e-01,2.527187764644622803e-01,-1.210567876696586609e-01,-3.177743554115295410e-01,-3.257406949996948242e-01
-8.962130546569824219e-02,-1.985606737434864044e-02,-3.174066543579101562e-02,2.896634116768836975e-02,-7.367347180843353271e-02,1.182623300701379776e-02,5.271602049469947815e-02,6.957673281431198120e-02,-2.406099997460842133e-02,9.323173761367797852e-02,-1.064814403653144836e-01,-3.888466581702232361e-02,3.868684172630310059e-02,2.616500854492187500e-02,4.805205389857292175e-02,-6.771304458379745483e-02,5.248512700200080872e-02,-9.576214104890823364e-02,-6.996893137693405151e-02,-1.723759435117244720e-02,-1.090377494692802429e-01,-9.698732197284698486e-02,-1.007849872112274170e-01,7.158873975276947021e-02,2.238462120294570923e-02,-4.292484372854232788e-02,-1.447969209402799606e-02,-8.894639462232589722e-02,-1.067832633852958679e-01,-7.116314768791198730e-02,-9.871314465999603271e-02,6.713511049747467041e-02,-4.543847963213920593e-02,-2.754465676844120026e-02,-9.828034043312072754e-02,6.606744602322578430e-03,-1.530959736555814743e-02,-7.805944234132766724e-02,6.301738321781158447e-02,8.601629734039306641e-02,-8.303371071815490723e-02,4.831863567233085632e-02,-1.656931824982166290e-02,-9.633696754463016987e-04,4.343616962432861328e-02,-1.860452257096767426e-02,7.620125263929367065e-02,5.224762484431266785e-02,-6.623893231153488159e-02,-7.037442177534103394e-02,-1.113576292991638184e-01,3.267039731144905090e-02,-7.675693184137344360e-02,-8.553346991539001465e-02,-6.540562212467193604e-02,-1.008802652359008789e-01,-8.309052139520645142e-02,9.102297574281692505e-02,5.415460467338562012e-02,9.041684120893478394e-02,-4.949556663632392883e-02,-5.188934877514839172e-02,-4.627404361963272095e-02,1.992926467210054398e-03,-8.374021947383880615e-02,4.424047656357288361e-03,-6.539864838123321533e-02,5.618729162961244583e-03,8.301394432783126831e-02,1.723498478531837463e-02,6.395262479782104492e-02,-8.324266970157623291e-02,-1.440018136054277420e-02,-7.261353731155395508e-02,-2.152561023831367493e-02,-4.059356823563575745e-02,-6.831087917089462280e-02,-1.083624884486198425e-01,-3.783748298883438110e-02,1.366478670388460159e-02,-1.795160584151744843e-02,-9.502938389778137207e-02,6.635786592960357666e-02,6.542060524225234985e-02,-6.152053549885749817e-02,1.454638095310656354e-05,5.728991702198982239e-02,-9.689744561910629272e-02,-9.995263069868087769e-02,4.615222662687301636e-02,-2.021055901423096657e-03,3.249404206871986389e-02,-4.243661090731620789e-02,1.850172504782676697e-02,5.756001919507980347e-02,-2.496282383799552917e-02
3.721160581335425377e-03,-4.980659484863281250e-02,2.079336531460285187e-02,9.265453368425369263e-02,-4.280782863497734070e-02,3.270514681935310364e-02,2.455803602933883667e-01,1.366065889596939087e-01,1.152792349457740784e-01,8.746241033077239990e-02,5.522762238979339600e-02,6.430876255035400391e-02,-6.322205662727355957e-01,-3.719953596591949463e-01,-2.751802504062652588e-01,8.467339724302291870e-02,9.934212267398834229e-02,1.227584257721900940e-01,-9.020472317934036255e-02,-1.341066807508468628e-01,-9.640406072139739990e-02,-2.801515161991119385e-02,2.136055612936615944e-03,1.132793650031089783e-01,-5.305814743041992188e-02,-5.067412555217742920e-02,-8.617965877056121826e-02,-4.848614707589149475e-02,-3.155292198061943054e-02,-1.550744324922561646e-01,-3.192182630300521851e-02,-1.118032447993755341e-02,-5.992873013019561768e-02,5.287578701972961426e-02,3.639391437172889709e-02,9.881483763456344604e-02,1.036152988672256470e-02,8.158764988183975220e-02,9.838713705539703369e-02,4.692183434963226318e-02,5.172623693943023682e-02,-8.015491068363189697e-02,-1.017035543918609619e-01,-9.737330838106572628e-04,-5.002591013908386230e-02,1.175095513463020325e-01,1.229627151042222977e-02,-1.055711507797241211e-02,6.028728559613227844e-02,2.933774841949343681e-03,9.270959347486495972e-02,4.482099786400794983e-02,5.423918738961219788e-02,1.326062679290771484e-01,1.259428411722183228e-01,-1.103870104998350143e-02,4.044257104396820068e-02,1.920874267816543579e-01,9.063557535409927368e-02,1.135236620903015137e-01,-4.578475281596183777e-02,-8.106202632188796997e-02,-9.008479863405227661e-02,-3.209007903933525085e-02,-4.882420599460601807e-02,6.431754678487777710e-02,3.122048452496528625e-02,-6.090344861149787903e-02,8.779885619878768921e-02,5.072207376360893250e-02,5.367724224925041199e-02,-5.015511438250541687e-02,7.800532877445220947e-02,-3.084213472902774811e-02,1.199287548661231995e-01,4.450970143079757690e-02,1.190320029854774475e-01,-4.909299314022064209e-03,6.629376858472824097e-02,-8.558370918035507202e-02,-2.008855715394020081e-02,3.259766846895217896e-02,-1.776582002639770508e-02,-2.028760313987731934e-02,6.433172151446342468e-03,2.970276400446891785e-02,8.127769082784652710e-02,3.390158293768763542e-03,1.071434989571571350e-01,-4.092993587255477905e-02,1.073381751775741577e-01,1.446981728076934814e-01,1.528145223855972290e-01,-1.813288182020187378e-01,-1.161071881651878357e-01,-1.753090620040893555e-01
-7.631181180477142334e-02,4.569510370492935181e-02,6.689982861280441284e-02,-1.311314702033996582e-01,2.146175317466259003e-02,1.398658752441406250e-01,5.285336077213287354e-02,6.763876229524612427e-02,8.747893571853637695e-02,-9.601512551307678223e-02,-1.513223629444837570e-02,1.090528666973114014e-01,3.311284482479095459e-01,2.593074738979339600e-01,3.672704100608825684e-01,-8.971431851387023926e-02,1.513011008501052856e-02,-5.996059998869895935e-02,-4.454828426241874695e-02,-1.061981022357940674e-01,2.453891187906265259e-02,2.296091802418231964e-02,1.194354295730590820e-01,4.991878196597099304e-02,-8.997143059968948364e-02,-9.637675434350967407e-02,-7.163352565839886665e-04,-7.841321080923080444e-02,4.110903292894363403e-02,-1.358386725187301636e-01,-9.844422340393066406e-02,-3.934116661548614502e-02,1.800273917615413666e-02,3.866207972168922424e-02,8.386865258216857910e-02,6.875517219305038452e-02,-2.322135865688323975e-01,-1.397540718317031860e-01,5.091261863708496094e-02,9.550715237855911255e-02,-8.582149632275104523e-03,-1.350594777613878250e-02,-9.023044258356094360e-02,9.116794914007186890e-03,-5.399986356496810913e-02,4.092962946742773056e-03,-7.001660764217376709e-02,1.069473698735237122e-01,-5.661981180310249329e-02,7.670209556818008423e-02,1.044542342424392700e-01,-3.121953308582305908e-01,-2.211295068264007568e-02,8.776489645242691040e-02,-2.180981449782848358e-02,1.247446611523628235e-01,1.135645434260368347e-01,3.254614472389221191e-01,2.287073135375976562e-01,1.084838435053825378e-01,-7.650148123502731323e-02,4.478077962994575500e-02,1.036386191844940186e-02,2.430582605302333832e-02,8.290833234786987305e-02,3.851940110325813293e-02,-1.248085722327232361e-01,5.129218474030494690e-02,9.108065068721771240e-02,-3.356325998902320862e-02,-3.432177752256393433e-02,-2.749348804354667664e-02,-2.912642061710357666e-02,2.063664421439170837e-02,2.028287649154663086e-01,5.092492327094078064e-02,1.331100007519125938e-03,1.175144538283348083e-01,-4.840241745114326477e-02,7.978822290897369385e-02,6.053270399570465088e-02,7.711672224104404449e-03,-2.460228651762008667e-02,5.750614404678344727e-02,8.598533272743225098e-02,3.594514355063438416e-02,-4.342575743794441223e-02,9.368414059281349182e-03,-3.196175023913383484e-02,3.847097605466842651e-02,-3.297112882137298584e-01,-4.009563848376274109e-02,5.807410925626754761e-02,-5.257324129343032837e-02,1.648253053426742554e-01,2.229548990726470947e-01
-8.243887871503829956e-02,-1.067208275198936462e-01,-2.559359073638916016e-01,4.577241465449333191e-02,-3.408267349004745483e-02,-1.365514844655990601e-01,-5.902764387428760529e-03,-2.285042256116867065e-01,-9.843452274799346924e-02,-6.986495852470397949e-02,-8.966925740242004395e-02,-6.303632259368896484e-02,3.263195604085922241e-02,-4.440444707870483398e-01,-2.976107299327850342e-01,5.483932048082351685e-02,2.766602113842964172e-02,-3.384235873818397522e-02,1.535168439149856567e-01,1.501467078924179077e-01,1.165736000984907150e-02,3.270997852087020874e-02,6.694383174180984497e-02,2.609743364155292511e-02,1.820372999645769596e-03,1.184738948941230774e-01,7.320143049582839012e-04,3.732492029666900635e-02,1.337647438049316406e-01,2.169686853885650635e-01,8.359847962856292725e-02,8.577107638120651245e-02,1.169274151325225830e-01,1.763639003038406372e-01,8.861887035891413689e-04,9.442473948001861572e-02,2.116320095956325531e-02,-3.603302873671054840e-03,-1.097592785954475403e-01,6.911996006965637207e-02,8.268497139215469360e-02,-3.763493523001670837e-02,1.071003824472427368e-01,2.728264033794403076e-01,2.242201417684555054e-01,1.889699846506118774e-01,-1.120347809046506882e-02,5.655880644917488098e-02,1.428027153015136719e-01,3.544447198510169983e-02,8.366204053163528442e-02,-5.002932250499725342e-02,5.201861262321472168e-02,-1.243824064731597900e-01,-1.258439421653747559e-01,-2.461924105882644653e-01,-2.034071683883666992e-01,-1.959096789360046387e-01,-3.083063066005706787e-01,-2.489358186721801758e-01,-1.307304948568344116e-03,1.129859611392021179e-01,5.516178160905838013e-02,1.545363366603851318e-01,2.622543834149837494e-02,7.360798120498657227e-02,1.793950498104095459e-01,3.052616119384765625e-02,9.230922162532806396e-02,1.807719022035598755e-01,5.776311084628105164e-02,6.762513518333435059e-02,1.110723894089460373e-02,-1.905151754617691040e-01,-1.738794595003128052e-01,-6.758033484220504761e-02,-1.814062893390655518e-01,-2.305348366498947144e-01,-3.394782170653343201e-02,-3.814693540334701538e-02,2.677915804088115692e-02,2.326983585953712463e-02,-2.432264238595962524e-01,-2.525182962417602539e-01,-1.867484673857688904e-02,1.078471466898918152e-01,1.546275913715362549e-01,-5.062000080943107605e-02,3.837471827864646912e-02,6.128563731908798218e-02,-1.670637577772140503e-01,-2.017808854579925537e-01,-1.531729400157928467e-01,2.640145719051361084e-01,2.454654872417449951e-01,1.827371269464492798e-01
-9.124770015478134155e-02,-1.100846603512763977e-01,-9.223844110965728760e-02,-5.990330129861831665e-03,4.886987805366516113e-02,-1.466771960258483887e-01,7.310547679662704468e-02,-6.930500734597444534e-03,1.748689636588096619e-02,1.391655951738357544e-01,9.301183745265007019e-03,-2.678594551980495453e-02,-3.015232086181640625e-01,-5.485517978668212891e-01,-5.050480365753173828e-01,1.734979003667831421e-01,4.492286592721939087e-02,1.414971053600311279e-01,1.378047931939363480e-02,5.345330387353897095e-02,8.912350982427597046e-02,5.837165191769599915e-02,4.959606751799583435e-02,7.659718394279479980e-02,6.758734118193387985e-03,9.750560671091079712e-02,-6.076481565833091736e-02,2.396866381168365479e-01,7.548640668392181396e-02,6.069039180874824524e-02,1.263986378908157349e-01,4.863605275750160217e-02,1.109105795621871948e-01,-5.344807356595993042e-02,-6.700427830219268799e-02,8.906944096088409424e-02,-1.648074761033058167e-02,8.545541763305664062e-02,1.124453544616699219e-01,1.022824347019195557e-01,-2.579552493989467621e-02,-9.791410993784666061e-04,-4.140510782599449158e-02,9.019674733281135559e-03,4.423679038882255554e-02,8.606882765889167786e-03,1.085163131356239319e-01,7.708567380905151367e-02,-3.085454180836677551e-02,-2.490011602640151978e-02,9.334576874971389771e-02,6.621941179037094116e-02,1.211393550038337708e-01,1.204292848706245422e-01,-6.153763830661773682e-02,-1.439508050680160522e-01,5.358539521694183350e-02,-1.672494262456893921e-01,-4.131514579057693481e-02,-2.047529369592666626e-01,-6.814963649958372116e-03,4.153129644691944122e-03,-4.838947206735610962e-02,9.319151192903518677e-02,-8.644245564937591553e-02,-3.006933443248271942e-02,1.745862327516078949e-02,1.167401596903800964e-01,9.781453013420104980e-02,9.442227333784103394e-02,8.983349800109863281e-02,1.372028142213821411e-01,-8.467749506235122681e-02,-1.206027790904045105e-01,-1.129218861460685730e-01,4.856368899345397949e-02,-7.758700847625732422e-02,-4.724547639489173889e-02,2.807251177728176117e-02,2.408919669687747955e-02,8.322750031948089600e-02,5.113686248660087585e-02,7.334163039922714233e-02,-4.409176111221313477e-02,-6.653273850679397583e-02,9.304390847682952881e-02,6.482648104429244995e-02,1.148025020956993103e-01,5.158751085400581360e-02,7.001172751188278198e-03,-3.481699898838996887e-02,-1.061552464962005615e-01,3.565545007586479187e-02,-3.962310962378978729e-03,-1.029602363705635071e-01,-1.263905167579650879e-01
8.673726767301559448e-02,-4.878724366426467896e-02,2.221831493079662323e-02,-2.749539911746978760e-02,-6.542304903268814087e-02,-7.049105316400527954e-02,1.810402721166610718e-01,1.846453845500946045e-01,1.737350821495056152e-01,5.748409032821655273e-02,6.488377600908279419e-02,8.418709039688110352e-02,-5.485005974769592285e-01,-5.747525095939636230e-01,-5.649502873420715332e-01,7.584131509065628052e-02,1.317573785781860352e-01,1.279030889272689819e-01,4.532038047909736633e-02,-1.639466919004917145e-02,-8.410992473363876343e-02,-3.374403808265924454e-03,1.791973225772380829e-02,4.310936853289604187e-02,7.624260336160659790e-02,-2.244390547275543213e-03,6.474539637565612793e-02,-1.454017311334609985e-02,4.283066838979721069e-02,-4.595497995615005493e-02,3.055217675864696503e-02,8.835010230541229248e-02,1.331161241978406906e-02,3.002700768411159515e-02,-3.443982079625129700e-02,-1.016918495297431946e-01,-3.917318582534790039e-02,-7.251926511526107788e-02,7.787585258483886719e-02,-4.919884726405143738e-02,-3.153750300407409668e-02,-1.029193103313446045e-01,-5.096137151122093201e-02,5.751050263643264771e-02,-4.248942807316780090e-02,1.696825027465820312e-02,7.253810763359069824e-02,7.759656757116317749e-02,8.204999566078186035e-02,-8.552931249141693115e-02,-1.201884355396032333e-02,4.215401038527488708e-02,3.374985605478286743e-02,1.773666292428970337e-01,-2.251545153558254242e-02,-2.432899922132492065e-02,7.307155430316925049e-02,1.557485610246658325e-01,-7.927791774272918701e-02,-4.866483807563781738e-02,-4.850330576300621033e-02,5.848653241991996765e-02,2.998257987201213837e-02,9.418239444494247437e-02,7.889719307422637939e-02,-3.146304190158843994e-02,7.831081002950668335e-02,-1.155703980475664139e-02,-1.400882098823785782e-02,-2.444142661988735199e-02,3.163330629467964172e-02,1.567772217094898224e-02,3.720252215862274170e-02,1.001093983650207520e-01,-4.179605096578598022e-02,1.233358755707740784e-01,1.631369739770889282e-01,7.393992692232131958e-02,-3.715862706303596497e-02,-4.622578620910644531e-02,1.954694837331771851e-02,3.704516589641571045e-02,2.485328912734985352e-02,7.153753191232681274e-02,6.009934097528457642e-02,-4.462909325957298279e-02,-8.652046322822570801e-02,1.240995973348617554e-01,-5.025944206863641739e-03,-5.790251120924949646e-02,8.184330165386199951e-02,2.178223580121994019e-01,1.597338616847991943e-01,-2.228676080703735352e-01,-2.414926886558532715e-01,-8.234756439924240112e-02
1.530197821557521820e-02,-2.621736004948616028e-02,-1.260717660188674927e-01,4.239363968372344971e-02,-6.553078442811965942e-02,5.204348638653755188e-02,5.708029866218566895e-02,4.515665397047996521e-02,7.021211087703704834e-03,1.610093265771865845e-01,1.422859728336334229e-01,-4.278356581926345825e-02,-1.326102614402770996e-01,-2.641539573669433594e-01,-1.677211970090866089e-01,1.727388650178909302e-01,1.862698048353195190e-01,1.768528372049331665e-01,-9.038032963871955872e-03,1.024503260850906372e-01,-8.269399404525756836e-02,6.833469122648239136e-02,-1.337514910846948624e-02,4.755127243697643280e-03,5.564177036285400391e-02,-8.727297186851501465e-02,3.873734921216964722e-02,4.001642018556594849e-02,1.109974011778831482e-01,2.708565816283226013e-02,1.184840593487024307e-02,9.548815339803695679e-02,-2.376449294388294220e-02,-1.361795067787170410e-01,7.032315433025360107e-02,-1.000452712178230286e-01,5.186307057738304138e-02,1.205642744898796082e-01,5.138204619288444519e-02,6.984067708253860474e-02,4.866743832826614380e-02,-5.314888805150985718e-02,6.912716478109359741e-02,5.208974331617355347e-02,1.292957365512847900e-01,8.014746010303497314e-02,-5.628421530127525330e-02,1.275247335433959961e-02,2.292605675756931305e-02,5.488074570894241333e-02,-7.946033030748367310e-03,1.057292819023132324e-01,9.957213699817657471e-02,1.320528835058212280e-01,-2.704755775630474091e-02,1.249944195151329041e-01,8.330275118350982666e-02,-1.035418063402175903e-01,-1.424619704484939575e-01,8.007422089576721191e-03,-1.592302918434143066e-01,9.411876089870929718e-03,-1.696967184543609619e-01,-4.678226634860038757e-02,-3.841705247759819031e-02,8.489227294921875000e-02,1.130376756191253662e-02,1.156209483742713928e-01,3.484297916293144226e-02,1.229010447859764099e-01,6.559921801090240479e-02,4.925622418522834778e-02,3.100612573325634003e-02,-4.145211726427078247e-02,-6.677102297544479370e-02,1.900278963148593903e-03,9.083052724599838257e-02,-3.445611521601676941e-02,-8.027068525552749634e-02,-7.982639223337173462e-02,-4.724143445491790771e-02,3.038307651877403259e-02,5.449502263218164444e-03,-2.302052639424800873e-02,-3.886493667960166931e-02,2.906158566474914551e-02,-8.388713002204895020e-02,7.089002430438995361e-02,-2.051099017262458801e-02,1.969644101336598396e-03,1.267506182193756104e-01,1.080590635538101196e-01,2.265025079250335693e-01,-2.958962917327880859e-01,-2.644181251525878906e-01,-3.475887477397918701e-01
2.378223836421966553e-02,2.930276840925216675e-02,-1.205873489379882812e-02,1.225291658192873001e-02,8.577805012464523315e-02,7.447013258934020996e-02,2.142088264226913452e-01,1.036007329821586609e-01,1.274267882108688354e-01,1.365700270980596542e-02,-1.206089276820421219e-02,2.491582743823528290e-02,-4.053656160831451416e-01,-5.539497137069702148e-01,-5.640925168991088867e-01,1.908170133829116821e-01,1.770316362380981445e-01,5.893759801983833313e-02,8.643054217100143433e-02,-6.418451666831970215e-02,8.819913119077682495e-02,1.065522581338882446e-01,-1.879918156191706657e-03,9.853021055459976196e-02,-3.066301718354225159e-02,-4.153027758002281189e-02,7.491095364093780518e-02,6.695310771465301514e-02,3.725520521402359009e-02,6.947199255228042603e-02,1.382028032094240189e-02,9.336321800947189331e-02,1.180338114500045776e-01,5.515812709927558899e-02,2.313090860843658447e-02,2.272262470796704292e-03,4.451468959450721741e-02,4.323916882276535034e-02,3.745280951261520386e-02,8.806461095809936523e-02,6.713252514600753784e-02,-9.423878975212574005e-03,4.544372856616973877e-02,7.991550490260124207e-03,1.742140948772430420e-02,1.326269954442977905e-01,-3.810925781726837158e-02,2.485835738480091095e-02,-9.187841787934303284e-03,-9.717662632465362549e-02,-1.170574948191642761e-01,8.948513120412826538e-02,1.730556935071945190e-01,3.566987067461013794e-02,7.316841930150985718e-02,8.916397392749786377e-02,-5.395510047674179077e-02,4.555834457278251648e-02,-1.067831926047801971e-02,-1.333831697702407837e-01,-3.871362889185547829e-03,-9.846802055835723877e-02,8.013881742954254150e-02,7.795729488134384155e-02,5.735750496387481689e-02,7.329800724983215332e-02,9.845536202192306519e-02,1.140791997313499451e-01,3.751057386398315430e-02,-5.083907023072242737e-02,9.976428002119064331e-02,7.791966665536165237e-03,-5.782973021268844604e-02,-5.037140846252441406e-02,7.892839610576629639e-02,7.128156721591949463e-02,9.887894243001937866e-02,2.940070256590843201e-02,9.425254911184310913e-02,-7.466924935579299927e-02,2.422750927507877350e-02,5.990240722894668579e-02,1.780779659748077393e-02,1.051834598183631897e-01,5.384817346930503845e-02,2.128431200981140137e-02,6.864964216947555542e-02,1.273899711668491364e-02,1.543717226013541222e-03,-8.458518981933593750e-02,7.698417454957962036e-02,2.212761528789997101e-02,1.469625830650329590e-01,-1.091945618391036987e-01,-2.963911592960357666e-01,-2.938029468059539795e-01
1.047697439789772034e-01,-5.029652267694473267e-02,8.059173077344894409e-02,1.225415393710136414e-01,-1.417479943484067917e-02,-6.780871003866195679e-02,2.184172272682189941e-01,1.887988746166229248e-01,2.109813690185546875e-01,1.184489578008651733e-01,1.440882533788681030e-01,4.462189972400665283e-03,-5.427842140197753906e-01,-5.702698230743408203e-01,-4.704731702804565430e-01,8.505407720804214478e-02,1.254003047943115234e-01,7.235295325517654419e-02,-6.752654910087585449e-02,4.194185137748718262e-02,1.346161821857094765e-03,1.019249111413955688e-01,4.160321131348609924e-02,1.906234771013259888e-02,2.346093021333217621e-02,6.641903519630432129e-02,-7.173307240009307861e-02,7.879851758480072021e-02,1.394534707069396973e-01,1.354404836893081665e-01,-6.063012406229972839e-02,7.030474394559860229e-02,-7.205585390329360962e-02,7.307695597410202026e-02,9.108223766088485718e-02,-2.479692688211798668e-03,5.856674909591674805e-02,-7.640434056520462036e-02,-3.210077062249183655e-02,-3.807817399501800537e-02,-1.035235524177551270e-01,-4.618456214666366577e-02,5.728085711598396301e-02,-1.129031181335449219e-02,1.006281077861785889e-01,-6.043896824121475220e-02,7.217652350664138794e-02,1.073850691318511963e-01,1.055312752723693848e-01,-4.469400271773338318e-02,-1.081240251660346985e-01,9.758853912353515625e-02,1.998785138130187988e-01,1.214357241988182068e-01,1.478334069252014160e-01,-3.923407569527626038e-02,-4.604741558432579041e-02,8.721730113029479980e-02,3.913105651736259460e-02,-7.657031714916229248e-02,8.459158241748809814e-02,-5.542566627264022827e-02,-1.007010862231254578e-01,5.982917547225952148e-02,-3.819016739726066589e-02,-4.192641377449035645e-02,-4.390272125601768494e-02,3.783633559942245483e-02,3.938968107104301453e-02,7.505263388156890869e-02,-6.489304453134536743e-02,-4.103738814592361450e-02,9.900159388780593872e-02,-5.076569318771362305e-02,-4.901653900742530823e-02,6.084829196333885193e-02,-1.949536241590976715e-02,-2.247670106589794159e-02,9.091328084468841553e-02,1.883682236075401306e-02,1.890050619840621948e-02,7.924833893775939941e-02,9.439267963171005249e-02,7.939752936363220215e-02,9.887978434562683105e-02,5.863461270928382874e-02,8.810824900865554810e-02,8.689990639686584473e-02,-5.636677145957946777e-03,5.695434520021080971e-04,8.319498598575592041e-02,3.309293836355209351e-02,2.013023495674133301e-01,-2.464465647935867310e-01,-2.109149992465972900e-01,-2.387922108173370361e-01
-1.222604140639305115e-01,-1.349115185439586639e-02,3.916404396295547485e-02,-9.922136366367340088e-02,-1.681954227387905121e-02,-6.424494087696075439e-02,1.791069060564041138e-01,2.181691825389862061e-01,1.433860808610916138e-01,5.964855104684829712e-02,1.460957080125808716e-01,3.210825473070144653e-02,-3.174784183502197266e-01,-5.357918739318847656e-01,-3.036803007125854492e-01,1.399137228727340698e-01,8.040896803140640259e-02,2.199418693780899048e-01,8.406323194503784180e-02,1.972049847245216370e-02,-7.487498968839645386e-02,-1.530842389911413193e-02,8.080969005823135376e-02,8.133184909820556641e-02,-1.886189728975296021e-02,6.178299710154533386e-02,-5.059894919395446777e-02,9.798951447010040283e-02,1.204404309391975403e-01,7.781927473843097687e-03,-5.622305348515510559e-02,3.781863301992416382e-02,8.055350929498672485e-02,3.789600729942321777e-02,-9.059391170740127563e-02,-3.312794491648674011e-02,5.342221632599830627e-02,1.354946754872798920e-02,4.156790673732757568e-02,-2.533824369311332703e-02,5.421248823404312134e-02,6.061743944883346558e-02,1.897476799786090851e-02,1.051179841160774231e-01,-3.914304077625274658e-03,4.617290198802947998e-02,3.368259593844413757e-02,-2.773847430944442749e-02,-3.570546209812164307e-02,-4.040057212114334106e-02,1.070674974471330643e-02,5.707784369587898254e-02,6.347902864217758179e-02,4.005864635109901428e-02,-1.852713897824287415e-02,7.936932891607284546e-02,1.510591059923171997e-01,-7.768709212541580200e-02,-2.114559896290302277e-02,1.125774607062339783e-01,-9.445544332265853882e-02,4.009690880775451660e-02,-2.543031051754951477e-02,-1.047609671950340271e-01,6.930694915354251862e-03,-6.413840502500534058e-02,1.836817525327205658e-02,-7.646095752716064453e-02,1.066305264830589294e-01,-3.755322471261024475e-02,8.311653137207031250e-02,-4.608744755387306213e-02,-1.438025832176208496e-01,9.600642370060086250e-04,4.048943519592285156e-02,5.701621249318122864e-02,-6.212269514799118042e-02,3.985759243369102478e-02,-7.071370631456375122e-02,2.890444919466972351e-02,1.636923290789127350e-02,1.077700108289718628e-01,1.391593664884567261e-01,1.510690618306398392e-02,1.022660061717033386e-01,8.510553836822509766e-02,3.886418417096138000e-02,-1.008504554629325867e-01,-6.413532048463821411e-02,6.118727847933769226e-02,1.962293833494186401e-01,1.827760338783264160e-01,1.697725653648376465e-01,-2.627655863761901855e-01,-3.318243026733398438e-01,-3.439344763755798340e-01
